Wavelength (nm)	Power (dBm)
1.525E-6	-49.097419
1.525045E-6	-48.992849
1.52509E-6	-48.90759
1.525135E-6	-48.797552
1.52518E-6	-48.703101
1.525225E-6	-48.601209
1.52527E-6	-48.501653
1.525315E-6	-48.398317
1.52536E-6	-48.353498
1.525405E-6	-48.241984
1.52545E-6	-48.144578
1.525495E-6	-48.054857
1.52554E-6	-47.983298
1.525585E-6	-47.891466
1.52563E-6	-47.817271
1.525675E-6	-47.731424
1.52572E-6	-47.629592
1.525765E-6	-47.557229
1.52581E-6	-47.4958
1.525855E-6	-47.420815
1.5259E-6	-47.342391
1.525945E-6	-47.297871
1.52599E-6	-47.21475
1.526035E-6	-47.128704
1.52608E-6	-47.095202
1.526125E-6	-47.033348
1.52617E-6	-46.955095
1.526215E-6	-46.893067
1.52626E-6	-46.817279
1.526305E-6	-46.742791
1.52635E-6	-46.673596
1.526395E-6	-46.627405
1.52644E-6	-46.569855
1.526485E-6	-46.507225
1.52653E-6	-46.458916
1.526575E-6	-46.399749
1.52662E-6	-46.375175
1.526665E-6	-46.29672
1.52671E-6	-46.248853
1.526755E-6	-46.19427
1.5268E-6	-46.133227
1.526845E-6	-46.117211
1.52689E-6	-46.069515
1.526935E-6	-46.013657
1.52698E-6	-45.972229
1.527025E-6	-45.902359
1.52707E-6	-45.890541
1.527115E-6	-45.856953
1.52716E-6	-45.783961
1.527205E-6	-45.779028
1.52725E-6	-45.702477
1.527295E-6	-45.67191
1.52734E-6	-45.659104
1.527385E-6	-45.630427
1.52743E-6	-45.586191
1.527475E-6	-45.553308
1.52752E-6	-45.539291
1.527565E-6	-45.50059
1.52761E-6	-45.479068
1.527655E-6	-45.433304
1.5277E-6	-45.404567
1.527745E-6	-45.368539
1.52779E-6	-45.337257
1.527835E-6	-45.346171
1.52788E-6	-45.325399
1.527925E-6	-45.322439
1.52797E-6	-45.30178
1.528015E-6	-45.272436
1.52806E-6	-45.241836
1.528105E-6	-45.225893
1.52815E-6	-45.254924
1.528195E-6	-45.244741
1.52824E-6	-45.214335
1.528285E-6	-45.198493
1.52833E-6	-45.201369
1.528375E-6	-45.176982
1.52842E-6	-45.179844
1.528465E-6	-45.184141
1.52851E-6	-45.158426
1.528555E-6	-45.121549
1.5286E-6	-45.16698
1.528645E-6	-45.157002
1.52869E-6	-45.135695
1.528735E-6	-45.114493
1.52878E-6	-45.101821
1.528825E-6	-45.101821
1.52887E-6	-45.077985
1.528915E-6	-45.090588
1.52896E-6	-45.09199
1.529005E-6	-45.044557
1.52905E-6	-45.045944
1.529095E-6	-45.083582
1.52914E-6	-45.100415
1.529185E-6	-45.108856
1.52923E-6	-45.05011
1.529275E-6	-45.058454
1.52932E-6	-45.040396
1.529365E-6	-45.083582
1.52941E-6	-45.093393
1.529455E-6	-45.0515
1.5295E-6	-45.064026
1.529545E-6	-45.094797
1.52959E-6	-45.111674
1.529635E-6	-45.124374
1.52968E-6	-45.076587
1.529725E-6	-45.0515
1.52977E-6	-45.07519
1.529815E-6	-45.083582
1.52986E-6	-45.096201
1.529905E-6	-45.125788
1.52995E-6	-45.093393
1.529995E-6	-45.125788
1.53004E-6	-45.082182
1.530085E-6	-45.130031
1.53013E-6	-45.124374
1.530175E-6	-45.115903
1.53022E-6	-45.121549
1.530265E-6	-45.096201
1.53031E-6	-45.13853
1.530355E-6	-45.124374
1.5304E-6	-45.125788
1.530445E-6	-45.122961
1.53049E-6	-45.115903
1.530535E-6	-45.141367
1.53058E-6	-45.122961
1.530625E-6	-45.144205
1.53067E-6	-45.187007
1.530715E-6	-45.185574
1.53076E-6	-45.181276
1.530805E-6	-45.165554
1.53085E-6	-45.195619
1.530895E-6	-45.189876
1.53094E-6	-45.182708
1.530985E-6	-45.176982
1.53103E-6	-45.214335
1.531075E-6	-45.224447
1.53112E-6	-45.236032
1.531165E-6	-45.236032
1.53121E-6	-45.249102
1.531255E-6	-45.215778
1.5313E-6	-45.22734
1.531345E-6	-45.249102
1.53139E-6	-45.287083
1.531435E-6	-45.278289
1.53148E-6	-45.25638
1.531525E-6	-45.300308
1.53157E-6	-45.310622
1.531615E-6	-45.316527
1.53166E-6	-45.318004
1.531705E-6	-45.331324
1.53175E-6	-45.304725
1.531795E-6	-45.30178
1.53184E-6	-45.355105
1.531885E-6	-45.374523
1.53193E-6	-45.392525
1.531975E-6	-45.353614
1.53202E-6	-45.368539
1.532065E-6	-45.424209
1.53211E-6	-45.389519
1.532155E-6	-45.40306
1.5322E-6	-45.406075
1.532245E-6	-45.419668
1.53229E-6	-45.465288
1.532335E-6	-45.474469
1.53238E-6	-45.492891
1.532425E-6	-45.506759
1.53247E-6	-45.497509
1.532515E-6	-45.495969
1.53256E-6	-45.503673
1.532605E-6	-45.520671
1.53265E-6	-45.537736
1.532695E-6	-45.568935
1.53274E-6	-45.58462
1.532785E-6	-45.579908
1.53283E-6	-45.627252
1.532875E-6	-45.603516
1.53292E-6	-45.655908
1.532965E-6	-45.68154
1.53301E-6	-45.683147
1.533055E-6	-45.676722
1.5331E-6	-45.720273
1.533145E-6	-45.705707
1.53319E-6	-45.733261
1.533235E-6	-45.743028
1.53328E-6	-45.749551
1.533325E-6	-45.752817
1.53337E-6	-45.767541
1.533415E-6	-45.797141
1.53346E-6	-45.785606
1.533505E-6	-45.836924
1.53355E-6	-45.856953
1.533595E-6	-45.846927
1.53364E-6	-45.895602
1.533685E-6	-45.909126
1.53373E-6	-45.905741
1.533775E-6	-45.948245
1.53382E-6	-45.980827
1.533865E-6	-45.965363
1.53391E-6	-45.99462
1.533955E-6	-46.011923
1.534E-6	-46.029295
1.534045E-6	-46.024076
1.53409E-6	-46.058987
1.534135E-6	-46.055483
1.53418E-6	-46.051982
1.534225E-6	-46.095948
1.53427E-6	-46.074789
1.534315E-6	-46.067759
1.53436E-6	-46.147513
1.534405E-6	-46.165437
1.53445E-6	-46.17983
1.534495E-6	-46.165437
1.53454E-6	-46.188849
1.534585E-6	-46.199698
1.53463E-6	-46.216021
1.534675E-6	-46.259853
1.53472E-6	-46.285627
1.534765E-6	-46.256183
1.53481E-6	-46.294869
1.534855E-6	-46.307841
1.5349E-6	-46.309698
1.534945E-6	-46.307841
1.53499E-6	-46.322715
1.535035E-6	-46.322715
1.53508E-6	-46.360122
1.535125E-6	-46.35074
1.53517E-6	-46.390281
1.535215E-6	-46.395959
1.53526E-6	-46.380834
1.535305E-6	-46.394066
1.53535E-6	-46.38839
1.535395E-6	-46.443569
1.53544E-6	-46.460838
1.535485E-6	-46.449318
1.53553E-6	-46.441655
1.535575E-6	-46.466609
1.53562E-6	-46.449318
1.535665E-6	-46.472388
1.53571E-6	-46.505282
1.535755E-6	-46.462761
1.5358E-6	-46.435917
1.535845E-6	-46.480105
1.53589E-6	-46.532559
1.535935E-6	-46.530605
1.53598E-6	-46.53647
1.536025E-6	-46.511113
1.53607E-6	-46.509168
1.536115E-6	-46.550186
1.53616E-6	-46.579723
1.536205E-6	-46.550186
1.53625E-6	-46.554113
1.536295E-6	-46.571827
1.53634E-6	-46.544302
1.536385E-6	-46.589614
1.53643E-6	-46.583677
1.536475E-6	-46.565914
1.53652E-6	-46.577748
1.536565E-6	-46.538427
1.53661E-6	-46.520848
1.536655E-6	-46.579723
1.5367E-6	-46.5738
1.536745E-6	-46.561977
1.53679E-6	-46.546263
1.536835E-6	-46.597542
1.53688E-6	-46.5738
1.536925E-6	-46.577748
1.53697E-6	-46.567884
1.537015E-6	-46.5738
1.53706E-6	-46.552149
1.537105E-6	-46.558043
1.53715E-6	-46.565914
1.537195E-6	-46.565914
1.53724E-6	-46.593576
1.537285E-6	-46.520848
1.53733E-6	-46.552149
1.537375E-6	-46.575773
1.53742E-6	-46.5267
1.537465E-6	-46.556077
1.53751E-6	-46.575773
1.537555E-6	-46.554113
1.5376E-6	-46.544302
1.537645E-6	-46.5267
1.53769E-6	-46.554113
1.537735E-6	-46.548224
1.53778E-6	-46.546263
1.537825E-6	-46.530605
1.53787E-6	-46.542343
1.537915E-6	-46.489771
1.53796E-6	-46.524748
1.538005E-6	-46.507225
1.53805E-6	-46.522798
1.538095E-6	-46.474316
1.53814E-6	-46.483969
1.538185E-6	-46.511113
1.53823E-6	-46.501399
1.538275E-6	-46.468535
1.53832E-6	-46.482037
1.538365E-6	-46.464684
1.53841E-6	-46.460838
1.538455E-6	-46.453154
1.5385E-6	-46.470461
1.538545E-6	-46.460838
1.53859E-6	-46.437829
1.538635E-6	-46.443569
1.53868E-6	-46.476245
1.538725E-6	-46.482037
1.53877E-6	-46.466609
1.538815E-6	-46.434006
1.53886E-6	-46.437829
1.538905E-6	-46.441655
1.53895E-6	-46.437829
1.538995E-6	-46.428277
1.53904E-6	-46.414941
1.539085E-6	-46.424463
1.53913E-6	-46.439741
1.539175E-6	-46.403542
1.53922E-6	-46.441655
1.539265E-6	-46.441655
1.53931E-6	-46.382722
1.539355E-6	-46.407338
1.5394E-6	-46.403542
1.539445E-6	-46.434006
1.53949E-6	-46.439741
1.539535E-6	-46.392173
1.53958E-6	-46.403542
1.539625E-6	-46.35449
1.53967E-6	-46.360122
1.539715E-6	-46.371407
1.53976E-6	-46.358244
1.539805E-6	-46.362001
1.53985E-6	-46.375175
1.539895E-6	-46.375175
1.53994E-6	-46.367642
1.539985E-6	-46.3865
1.54003E-6	-46.38461
1.540075E-6	-46.38839
1.54012E-6	-46.356366
1.540165E-6	-46.339508
1.54021E-6	-46.348866
1.540255E-6	-46.34512
1.5403E-6	-46.373291
1.540345E-6	-46.36388
1.54039E-6	-46.343249
1.540435E-6	-46.305986
1.54048E-6	-46.34512
1.540525E-6	-46.33017
1.54057E-6	-46.315272
1.540615E-6	-46.287474
1.54066E-6	-46.328305
1.540705E-6	-46.33017
1.54075E-6	-46.326441
1.540795E-6	-46.311555
1.54084E-6	-46.287474
1.540885E-6	-46.332036
1.54093E-6	-46.328305
1.540975E-6	-46.309698
1.54102E-6	-46.311555
1.541065E-6	-46.348866
1.54111E-6	-46.305986
1.541155E-6	-46.304131
1.5412E-6	-46.298572
1.541245E-6	-46.305986
1.54129E-6	-46.272721
1.541335E-6	-46.283781
1.54138E-6	-46.280091
1.541425E-6	-46.29672
1.54147E-6	-46.280091
1.541515E-6	-46.283781
1.54156E-6	-46.29672
1.541605E-6	-46.278247
1.54165E-6	-46.305986
1.541695E-6	-46.256183
1.54174E-6	-46.27088
1.541785E-6	-46.305986
1.54183E-6	-46.281935
1.541875E-6	-46.26904
1.54192E-6	-46.250684
1.541965E-6	-46.272721
1.54201E-6	-46.272721
1.542055E-6	-46.283781
1.5421E-6	-46.263525
1.542145E-6	-46.230582
1.54219E-6	-46.247023
1.542235E-6	-46.239708
1.54228E-6	-46.247023
1.542325E-6	-46.252517
1.54237E-6	-46.247023
1.542415E-6	-46.22876
1.54246E-6	-46.250684
1.542505E-6	-46.252517
1.54255E-6	-46.248853
1.542595E-6	-46.250684
1.54264E-6	-46.243364
1.542685E-6	-46.263525
1.54273E-6	-46.250684
1.542775E-6	-46.259853
1.54282E-6	-46.248853
1.542865E-6	-46.212388
1.54291E-6	-46.187044
1.542955E-6	-46.214204
1.543E-6	-46.221476
1.543045E-6	-46.23423
1.54309E-6	-46.23423
1.543135E-6	-46.221476
1.54318E-6	-46.226937
1.543225E-6	-46.245193
1.54327E-6	-46.214204
1.543315E-6	-46.206945
1.54336E-6	-46.210573
1.543405E-6	-46.219657
1.54345E-6	-46.225116
1.543495E-6	-46.219657
1.54354E-6	-46.23423
1.543585E-6	-46.219657
1.54363E-6	-46.199698
1.543675E-6	-46.190655
1.54372E-6	-46.205132
1.543765E-6	-46.19427
1.54381E-6	-46.223296
1.543855E-6	-46.197888
1.5439E-6	-46.196078
1.543945E-6	-46.216021
1.54399E-6	-46.206945
1.544035E-6	-46.258017
1.54408E-6	-46.239708
1.544125E-6	-46.241536
1.54417E-6	-46.230582
1.544215E-6	-46.219657
1.54426E-6	-46.247023
1.544305E-6	-46.241536
1.54435E-6	-46.232406
1.544395E-6	-46.216021
1.54444E-6	-46.212388
1.544485E-6	-46.245193
1.54453E-6	-46.236056
1.544575E-6	-46.267201
1.54462E-6	-46.230582
1.544665E-6	-46.241536
1.54471E-6	-46.225116
1.544755E-6	-46.250684
1.5448E-6	-46.232406
1.544845E-6	-46.241536
1.54489E-6	-46.281935
1.544935E-6	-46.259853
1.54498E-6	-46.258017
1.545025E-6	-46.245193
1.54507E-6	-46.245193
1.545115E-6	-45.746288
1.54516E-6	-41.685782
1.545205E-6	-37.806775
1.54525E-6	-36.057235
1.545295E-6	-35.692801
1.54534E-6	-35.561115
1.545385E-6	-35.578339
1.54543E-6	-35.523769
1.545475E-6	-35.958508
1.54552E-6	-37.814645
1.545565E-6	-41.507035
1.54561E-6	-45.397037
1.545655E-6	-46.17983
1.5457E-6	-46.250684
1.545745E-6	-46.261689
1.54579E-6	-46.283781
1.545835E-6	-46.289321
1.54588E-6	-46.272721
1.545925E-6	-46.285627
1.54597E-6	-46.27088
1.546015E-6	-46.280091
1.54606E-6	-46.267201
1.546105E-6	-46.263525
1.54615E-6	-46.281935
1.546195E-6	-46.267201
1.54624E-6	-46.26904
1.546285E-6	-46.278247
1.54633E-6	-46.281935
1.546375E-6	-46.298572
1.54642E-6	-46.285627
1.546465E-6	-46.287474
1.54651E-6	-46.289321
1.546555E-6	-46.289321
1.5466E-6	-46.307841
1.546645E-6	-46.315272
1.54669E-6	-46.302277
1.546735E-6	-46.304131
1.54678E-6	-46.304131
1.546825E-6	-46.287474
1.54687E-6	-46.307841
1.546915E-6	-46.309698
1.54696E-6	-46.307841
1.547005E-6	-46.281935
1.54705E-6	-46.313413
1.547095E-6	-46.302277
1.54714E-6	-46.324577
1.547185E-6	-46.328305
1.54723E-6	-46.33577
1.547275E-6	-46.324577
1.54732E-6	-46.326441
1.547365E-6	-46.311555
1.54741E-6	-46.313413
1.547455E-6	-46.328305
1.5475E-6	-46.324577
1.547545E-6	-46.302277
1.54759E-6	-46.315272
1.547635E-6	-46.348866
1.54768E-6	-46.311555
1.547725E-6	-46.307841
1.54777E-6	-46.307841
1.547815E-6	-46.311555
1.54786E-6	-46.322715
1.547905E-6	-46.339508
1.54795E-6	-46.324577
1.547995E-6	-46.34512
1.54804E-6	-46.348866
1.548085E-6	-46.348866
1.54813E-6	-46.356366
1.548175E-6	-46.356366
1.54822E-6	-46.356366
1.548265E-6	-46.343249
1.54831E-6	-46.317131
1.548355E-6	-46.320853
1.5484E-6	-46.332036
1.548445E-6	-46.33017
1.54849E-6	-46.320853
1.548535E-6	-46.317131
1.54858E-6	-46.311555
1.548625E-6	-46.307841
1.54867E-6	-46.311555
1.548715E-6	-46.328305
1.54876E-6	-46.302277
1.548805E-6	-46.305986
1.54885E-6	-46.33017
1.548895E-6	-46.348866
1.54894E-6	-46.348866
1.548985E-6	-46.360122
1.54903E-6	-46.322715
1.549075E-6	-46.33577
1.54912E-6	-46.298572
1.549165E-6	-46.324577
1.54921E-6	-46.320853
1.549255E-6	-46.300424
1.5493E-6	-46.300424
1.549345E-6	-46.298572
1.54939E-6	-46.278247
1.549435E-6	-46.287474
1.54948E-6	-46.309698
1.549525E-6	-46.294869
1.54957E-6	-46.326441
1.549615E-6	-46.302277
1.54966E-6	-46.324577
1.549705E-6	-46.324577
1.54975E-6	-46.324577
1.549795E-6	-46.311555
1.54984E-6	-46.304131
1.549885E-6	-46.239708
1.54993E-6	-44.394956
1.549975E-6	-39.453869
1.55002E-6	-36.309698
1.550065E-6	-35.269512
1.55011E-6	-35.103227
1.550155E-6	-35.077985
1.5502E-6	-35.05289
1.550245E-6	-35.100415
1.55029E-6	-35.888856
1.550335E-6	-38.560489
1.55038E-6	-42.967946
1.550425E-6	-45.944829
1.55047E-6	-46.247023
1.550515E-6	-46.281935
1.55056E-6	-46.278247
1.550605E-6	-46.285627
1.55065E-6	-46.27088
1.550695E-6	-46.278247
1.55074E-6	-46.305986
1.550785E-6	-46.267201
1.55083E-6	-46.272721
1.550875E-6	-46.248853
1.55092E-6	-46.250684
1.550965E-6	-46.22876
1.55101E-6	-46.265363
1.551055E-6	-46.274562
1.5511E-6	-46.241536
1.551145E-6	-46.247023
1.55119E-6	-46.258017
1.551235E-6	-46.276404
1.55128E-6	-46.276404
1.551325E-6	-46.281935
1.55137E-6	-46.27088
1.551415E-6	-46.247023
1.55146E-6	-46.241536
1.551505E-6	-46.258017
1.55155E-6	-46.259853
1.551595E-6	-46.219657
1.55164E-6	-46.217839
1.551685E-6	-46.219657
1.55173E-6	-46.237881
1.551775E-6	-46.225116
1.55182E-6	-46.223296
1.551865E-6	-46.212388
1.55191E-6	-46.212388
1.551955E-6	-46.210573
1.552E-6	-46.223296
1.552045E-6	-46.245193
1.55209E-6	-46.237881
1.552135E-6	-46.201508
1.55218E-6	-46.223296
1.552225E-6	-46.208759
1.55227E-6	-46.226937
1.552315E-6	-46.216021
1.55236E-6	-46.216021
1.552405E-6	-46.172627
1.55245E-6	-46.187044
1.552495E-6	-46.176227
1.55254E-6	-46.190655
1.552585E-6	-46.196078
1.55263E-6	-46.178028
1.552675E-6	-46.17983
1.55272E-6	-46.183435
1.552765E-6	-46.208759
1.55281E-6	-46.199698
1.552855E-6	-46.230582
1.5529E-6	-46.216021
1.552945E-6	-46.169031
1.55299E-6	-46.183435
1.553035E-6	-46.190655
1.55308E-6	-46.190655
1.553125E-6	-46.161846
1.55317E-6	-46.152883
1.553215E-6	-46.160052
1.55326E-6	-46.167233
1.553305E-6	-46.169031
1.55335E-6	-46.160052
1.553395E-6	-46.170829
1.55344E-6	-46.143937
1.553485E-6	-46.13501
1.55353E-6	-46.152883
1.553575E-6	-46.169031
1.55362E-6	-46.187044
1.553665E-6	-46.161846
1.55371E-6	-46.172627
1.553755E-6	-46.152883
1.5538E-6	-46.158259
1.553845E-6	-46.161846
1.55389E-6	-46.181632
1.553935E-6	-46.163641
1.55398E-6	-46.145725
1.554025E-6	-46.138579
1.55407E-6	-46.145725
1.554115E-6	-46.143937
1.55416E-6	-46.131445
1.554205E-6	-46.129663
1.55425E-6	-46.103025
1.554295E-6	-46.104795
1.55434E-6	-46.152883
1.554385E-6	-46.160052
1.55443E-6	-46.138579
1.554475E-6	-46.138579
1.55452E-6	-46.127882
1.554565E-6	-46.127882
1.55461E-6	-46.160052
1.554655E-6	-46.149302
1.5547E-6	-46.14215
1.554745E-6	-46.127882
1.55479E-6	-46.133227
1.554835E-6	-46.11366
1.55488E-6	-46.118988
1.554925E-6	-46.115435
1.55497E-6	-46.104795
1.555015E-6	-46.094181
1.55506E-6	-46.108339
1.555105E-6	-46.083593
1.55515E-6	-46.104795
1.555195E-6	-46.108339
1.55524E-6	-46.136794
1.555285E-6	-46.127882
1.55533E-6	-46.101254
1.555375E-6	-46.117211
1.55542E-6	-46.120765
1.555465E-6	-46.11366
1.55551E-6	-46.104795
1.555555E-6	-46.101254
1.5556E-6	-46.097716
1.555645E-6	-46.083593
1.55569E-6	-46.083593
1.555735E-6	-46.110112
1.55578E-6	-46.097716
1.555825E-6	-46.088884
1.55587E-6	-46.07303
1.555915E-6	-46.101254
1.55596E-6	-46.083593
1.556005E-6	-46.081831
1.55605E-6	-46.085356
1.556095E-6	-46.099485
1.55614E-6	-46.097716
1.556185E-6	-46.126102
1.55623E-6	-46.117211
1.556275E-6	-46.090649
1.55632E-6	-46.097716
1.556365E-6	-46.083593
1.55641E-6	-46.080069
1.556455E-6	-46.083593
1.5565E-6	-46.088884
1.556545E-6	-46.074789
1.55659E-6	-46.067759
1.556635E-6	-46.053732
1.55668E-6	-46.085356
1.556725E-6	-46.083593
1.55677E-6	-46.071273
1.556815E-6	-46.092415
1.55686E-6	-46.078309
1.556905E-6	-46.090649
1.55695E-6	-46.103025
1.556995E-6	-46.11366
1.55704E-6	-46.099485
1.557085E-6	-46.078309
1.55713E-6	-46.069515
1.557175E-6	-46.094181
1.55722E-6	-46.090649
1.557265E-6	-46.083593
1.55731E-6	-46.090649
1.557355E-6	-46.062494
1.5574E-6	-46.094181
1.557445E-6	-46.078309
1.55749E-6	-46.062494
1.557535E-6	-46.08712
1.55758E-6	-46.057235
1.557625E-6	-46.076548
1.55767E-6	-46.094181
1.557715E-6	-46.080069
1.55776E-6	-46.120765
1.557805E-6	-46.097716
1.55785E-6	-46.124322
1.557895E-6	-46.122543
1.55794E-6	-46.124322
1.557985E-6	-46.115435
1.55803E-6	-46.097716
1.558075E-6	-46.083593
1.55812E-6	-46.081831
1.558165E-6	-46.111886
1.55821E-6	-46.103025
1.558255E-6	-46.11366
1.5583E-6	-46.111886
1.558345E-6	-46.115435
1.55839E-6	-46.11366
1.558435E-6	-46.110112
1.55848E-6	-46.13501
1.558525E-6	-46.145725
1.55857E-6	-46.11366
1.558615E-6	-46.13501
1.55866E-6	-46.143937
1.558705E-6	-46.127882
1.55875E-6	-46.143937
1.558795E-6	-46.143937
1.55884E-6	-46.136794
1.558885E-6	-46.126102
1.55893E-6	-46.138579
1.558975E-6	-46.13501
1.55902E-6	-46.13501
1.559065E-6	-46.127882
1.55911E-6	-46.136794
1.559155E-6	-46.117211
1.5592E-6	-46.131445
1.559245E-6	-46.178028
1.55929E-6	-46.176227
1.559335E-6	-46.188849
1.55938E-6	-46.176227
1.559425E-6	-46.178028
1.55947E-6	-46.17983
1.559515E-6	-46.192462
1.55956E-6	-46.206945
1.559605E-6	-46.17983
1.55965E-6	-46.185239
1.559695E-6	-46.152883
1.55974E-6	-46.169031
1.559785E-6	-46.172627
1.55983E-6	-46.19427
1.559875E-6	-46.190655
1.55992E-6	-46.17983
1.559965E-6	-46.172627
1.56001E-6	-46.20332
1.560055E-6	-46.23423
1.5601E-6	-46.237881
1.560145E-6	-46.230582
1.56019E-6	-46.230582
1.560235E-6	-46.214204
1.56028E-6	-46.236056
1.560325E-6	-46.261689
1.56037E-6	-46.243364
1.560415E-6	-46.23423
1.56046E-6	-46.217839
1.560505E-6	-46.212388
1.56055E-6	-46.223296
1.560595E-6	-46.236056
1.56064E-6	-46.236056
1.560685E-6	-46.225116
1.56073E-6	-46.237881
1.560775E-6	-46.258017
1.56082E-6	-46.237881
1.560865E-6	-46.278247
1.56091E-6	-46.274562
1.560955E-6	-46.285627
1.561E-6	-46.274562
1.561045E-6	-46.294869
1.56109E-6	-46.289321
1.561135E-6	-46.302277
1.56118E-6	-46.302277
1.561225E-6	-46.289321
1.56127E-6	-46.278247
1.561315E-6	-46.29117
1.56136E-6	-46.304131
1.561405E-6	-46.307841
1.56145E-6	-46.280091
1.561495E-6	-46.281935
1.56154E-6	-46.294869
1.561585E-6	-46.302277
1.56163E-6	-46.293019
1.561675E-6	-46.307841
1.56172E-6	-46.339508
1.561765E-6	-46.309698
1.56181E-6	-46.328305
1.561855E-6	-46.33017
1.5619E-6	-46.34512
1.561945E-6	-46.337639
1.56199E-6	-46.33577
1.562035E-6	-46.307841
1.56208E-6	-46.322715
1.562125E-6	-46.328305
1.56217E-6	-46.294869
1.562215E-6	-46.315272
1.56226E-6	-46.309698
1.562305E-6	-46.307841
1.56235E-6	-46.304131
1.562395E-6	-46.337639
1.56244E-6	-46.326441
1.562485E-6	-46.343249
1.56253E-6	-46.35074
1.562575E-6	-46.332036
1.56262E-6	-46.328305
1.562665E-6	-46.35449
1.56271E-6	-46.35449
1.562755E-6	-46.35449
1.5628E-6	-46.333903
1.562845E-6	-46.339508
1.56289E-6	-46.33017
1.562935E-6	-46.352614
1.56298E-6	-46.333903
1.563025E-6	-46.328305
1.56307E-6	-46.317131
1.563115E-6	-46.339508
1.56316E-6	-46.302277
1.563205E-6	-46.337639
1.56325E-6	-46.339508
1.563295E-6	-46.333903
1.56334E-6	-46.35074
1.563385E-6	-46.346993
1.56343E-6	-46.371407
1.563475E-6	-46.367642
