Wavelength (nm)	Power (dBm)
1.525E-6	-47.50557
1.525045E-6	-47.411234
1.52509E-6	-47.304871
1.525135E-6	-47.21475
1.52518E-6	-47.110804
1.525225E-6	-47.009287
1.52527E-6	-46.914356
1.525315E-6	-46.823545
1.52536E-6	-46.73869
1.525405E-6	-46.635403
1.52545E-6	-46.546263
1.525495E-6	-46.455074
1.52554E-6	-46.371407
1.525585E-6	-46.287474
1.52563E-6	-46.185239
1.525675E-6	-46.094181
1.52572E-6	-46.013657
1.525765E-6	-45.943122
1.52581E-6	-45.841923
1.525855E-6	-45.797141
1.5259E-6	-45.718652
1.525945E-6	-45.659104
1.52599E-6	-45.595632
1.526035E-6	-45.542402
1.52608E-6	-45.477534
1.526125E-6	-45.40306
1.52617E-6	-45.31505
1.526215E-6	-45.259295
1.52626E-6	-45.189876
1.526305E-6	-45.113083
1.52635E-6	-45.03901
1.526395E-6	-44.975729
1.52644E-6	-44.901257
1.526485E-6	-44.838614
1.52653E-6	-44.793855
1.526575E-6	-44.723701
1.52662E-6	-44.685211
1.526665E-6	-44.634416
1.52671E-6	-44.585456
1.526755E-6	-44.558079
1.5268E-6	-44.524714
1.526845E-6	-44.458744
1.52689E-6	-44.404524
1.526935E-6	-44.355707
1.52698E-6	-44.310946
1.527025E-6	-44.275931
1.52707E-6	-44.209027
1.527115E-6	-44.13863
1.52716E-6	-44.091582
1.527205E-6	-44.036229
1.52725E-6	-43.998987
1.527295E-6	-43.959901
1.52734E-6	-43.944795
1.527385E-6	-43.907258
1.52743E-6	-43.87428
1.527475E-6	-43.870043
1.52752E-6	-43.852082
1.527565E-6	-43.815335
1.52761E-6	-43.806979
1.527655E-6	-43.78097
1.5277E-6	-43.745846
1.527745E-6	-43.704885
1.52779E-6	-43.694704
1.527835E-6	-43.624102
1.52788E-6	-43.584267
1.527925E-6	-43.533023
1.52797E-6	-43.500813
1.528015E-6	-43.471737
1.52806E-6	-43.476569
1.528105E-6	-43.451499
1.52815E-6	-43.445734
1.528195E-6	-43.430398
1.52824E-6	-43.443814
1.528285E-6	-43.461124
1.52833E-6	-43.449577
1.528375E-6	-43.440936
1.52842E-6	-43.434227
1.528465E-6	-43.420841
1.52851E-6	-43.393242
1.528555E-6	-43.375255
1.5286E-6	-43.35452
1.528645E-6	-43.305901
1.52869E-6	-43.251389
1.528735E-6	-43.236723
1.52878E-6	-43.230322
1.528825E-6	-43.239469
1.52887E-6	-43.210266
1.528915E-6	-43.186683
1.52896E-6	-43.204813
1.529005E-6	-43.230322
1.52905E-6	-43.25966
1.529095E-6	-43.272558
1.52914E-6	-43.277174
1.529185E-6	-43.243133
1.52923E-6	-43.247717
1.529275E-6	-43.256901
1.52932E-6	-43.266104
1.529365E-6	-43.22393
1.52941E-6	-43.172234
1.529455E-6	-43.137213
1.5295E-6	-43.128279
1.529545E-6	-43.106911
1.52959E-6	-43.132744
1.529635E-6	-43.109577
1.52968E-6	-43.114912
1.529725E-6	-43.115802
1.52977E-6	-43.143478
1.529815E-6	-43.18397
1.52986E-6	-43.209357
1.529905E-6	-43.217548
1.52995E-6	-43.210266
1.529995E-6	-43.213906
1.53004E-6	-43.214816
1.530085E-6	-43.205721
1.53013E-6	-43.226668
1.530175E-6	-43.166827
1.53022E-6	-43.119363
1.530265E-6	-43.104248
1.53031E-6	-43.119363
1.530355E-6	-43.139897
1.5304E-6	-43.128279
1.530445E-6	-43.116692
1.53049E-6	-43.12471
1.530535E-6	-43.147062
1.53058E-6	-43.200273
1.530625E-6	-43.243133
1.53067E-6	-43.256901
1.530715E-6	-43.250471
1.53076E-6	-43.250471
1.530805E-6	-43.267026
1.53085E-6	-43.285494
1.530895E-6	-43.282719
1.53094E-6	-43.255982
1.530985E-6	-43.222106
1.53103E-6	-43.186683
1.531075E-6	-43.197552
1.53112E-6	-43.220282
1.531165E-6	-43.219371
1.53121E-6	-43.214816
1.531255E-6	-43.22393
1.5313E-6	-43.265183
1.531345E-6	-43.310553
1.53139E-6	-43.34419
1.531435E-6	-43.384713
1.53148E-6	-43.392294
1.531525E-6	-43.409399
1.53157E-6	-43.40369
1.531615E-6	-43.429441
1.53166E-6	-43.434227
1.531705E-6	-43.418932
1.53175E-6	-43.39514
1.531795E-6	-43.389449
1.53184E-6	-43.382819
1.531885E-6	-43.388501
1.53193E-6	-43.408447
1.531975E-6	-43.418932
1.53202E-6	-43.43327
1.532065E-6	-43.46691
1.53211E-6	-43.497896
1.532155E-6	-43.553645
1.5322E-6	-43.603143
1.532245E-6	-43.624102
1.53229E-6	-43.651199
1.532335E-6	-43.667336
1.53238E-6	-43.695721
1.532425E-6	-43.70081
1.53247E-6	-43.706924
1.532515E-6	-43.706924
1.53256E-6	-43.688607
1.532605E-6	-43.682519
1.53265E-6	-43.696738
1.532695E-6	-43.713046
1.53274E-6	-43.736596
1.532785E-6	-43.745846
1.53283E-6	-43.789276
1.532875E-6	-43.828948
1.53292E-6	-43.892334
1.532965E-6	-43.941565
1.53301E-6	-43.989183
1.533055E-6	-44.009908
1.5331E-6	-44.060497
1.533145E-6	-44.070464
1.53319E-6	-44.092696
1.533235E-6	-44.115042
1.53328E-6	-44.127382
1.533325E-6	-44.121768
1.53337E-6	-44.112802
1.533415E-6	-44.112802
1.53346E-6	-44.134127
1.533505E-6	-44.170281
1.53355E-6	-44.210172
1.533595E-6	-44.244658
1.53364E-6	-44.272445
1.533685E-6	-44.329736
1.53373E-6	-44.386601
1.533775E-6	-44.46117
1.53382E-6	-44.492826
1.533865E-6	-44.544455
1.53391E-6	-44.563044
1.533955E-6	-44.594203
1.534E-6	-44.629369
1.534045E-6	-44.6572
1.53409E-6	-44.644527
1.534135E-6	-44.644527
1.53418E-6	-44.643262
1.534225E-6	-44.654662
1.53427E-6	-44.689045
1.534315E-6	-44.739193
1.53436E-6	-44.76774
1.534405E-6	-44.797786
1.53445E-6	-44.846561
1.534495E-6	-44.918745
1.53454E-6	-44.989407
1.534585E-6	-45.045944
1.53463E-6	-45.094797
1.534675E-6	-45.118725
1.53472E-6	-45.141367
1.534765E-6	-45.174122
1.53481E-6	-45.210009
1.534855E-6	-45.223001
1.5349E-6	-45.224447
1.534945E-6	-45.207127
1.53499E-6	-45.22734
1.535035E-6	-45.260753
1.53508E-6	-45.30178
1.535125E-6	-45.319482
1.53517E-6	-45.373026
1.535215E-6	-45.394028
1.53526E-6	-45.463759
1.535305E-6	-45.545515
1.53535E-6	-45.619325
1.535395E-6	-45.657505
1.53544E-6	-45.692801
1.535485E-6	-45.707323
1.53553E-6	-45.725139
1.535575E-6	-45.775743
1.53562E-6	-45.795491
1.535665E-6	-45.774102
1.53571E-6	-45.75445
1.535755E-6	-45.762628
1.5358E-6	-45.788899
1.535845E-6	-45.828606
1.53589E-6	-45.868679
1.535935E-6	-45.885487
1.53598E-6	-45.907433
1.536025E-6	-45.955084
1.53607E-6	-46.029295
1.536115E-6	-46.106567
1.53616E-6	-46.147513
1.536205E-6	-46.165437
1.53625E-6	-46.199698
1.536295E-6	-46.216021
1.53634E-6	-46.239708
1.536385E-6	-46.261689
1.53643E-6	-46.254349
1.536475E-6	-46.23423
1.53652E-6	-46.199698
1.536565E-6	-46.22876
1.53661E-6	-46.239708
1.536655E-6	-46.289321
1.5367E-6	-46.300424
1.536745E-6	-46.313413
1.53679E-6	-46.346993
1.536835E-6	-46.399749
1.53688E-6	-46.480105
1.536925E-6	-46.513058
1.53697E-6	-46.522798
1.537015E-6	-46.538427
1.53706E-6	-46.567884
1.537105E-6	-46.597542
1.53715E-6	-46.635403
1.537195E-6	-46.627405
1.53724E-6	-46.585655
1.537285E-6	-46.53647
1.53733E-6	-46.540385
1.537375E-6	-46.548224
1.53742E-6	-46.565914
1.537465E-6	-46.563945
1.53751E-6	-46.5738
1.537555E-6	-46.585655
1.5376E-6	-46.633402
1.537645E-6	-46.703988
1.53769E-6	-46.759234
1.537735E-6	-46.781945
1.53778E-6	-46.779876
1.537825E-6	-46.806857
1.53787E-6	-46.823545
1.537915E-6	-46.834007
1.53796E-6	-46.831912
1.538005E-6	-46.784016
1.53805E-6	-46.742791
1.538095E-6	-46.718243
1.53814E-6	-46.714166
1.538185E-6	-46.722325
1.53823E-6	-46.732546
1.538275E-6	-46.718243
1.53832E-6	-46.7305
1.538365E-6	-46.736641
1.53841E-6	-46.784016
1.538455E-6	-46.869769
1.5385E-6	-46.895191
1.538545E-6	-46.890944
1.53859E-6	-46.893067
1.538635E-6	-46.912222
1.53868E-6	-46.905828
1.538725E-6	-46.905828
1.53877E-6	-46.888822
1.538815E-6	-46.836102
1.53886E-6	-46.792308
1.538905E-6	-46.784016
1.53895E-6	-46.751005
1.538995E-6	-46.757175
1.53904E-6	-46.74074
1.539085E-6	-46.759234
1.53913E-6	-46.751005
1.539175E-6	-46.802695
1.53922E-6	-46.848697
1.539265E-6	-46.899443
1.53931E-6	-46.880343
1.539355E-6	-46.899443
1.5394E-6	-46.916491
1.539445E-6	-46.918626
1.53949E-6	-46.8867
1.539535E-6	-46.888822
1.53958E-6	-46.829819
1.539625E-6	-46.790233
1.53967E-6	-46.751005
1.539715E-6	-46.742791
1.53976E-6	-46.714166
1.539805E-6	-46.697892
1.53985E-6	-46.710091
1.539895E-6	-46.706021
1.53994E-6	-46.716204
1.539985E-6	-46.759234
1.54003E-6	-46.813107
1.540075E-6	-46.831912
1.54012E-6	-46.857113
1.540165E-6	-46.852903
1.54021E-6	-46.846595
1.540255E-6	-46.840297
1.5403E-6	-46.834007
1.540345E-6	-46.79646
1.54039E-6	-46.765416
1.540435E-6	-46.699923
1.54048E-6	-46.665527
1.540525E-6	-46.633402
1.54057E-6	-46.627405
1.540615E-6	-46.619421
1.54066E-6	-46.613443
1.540705E-6	-46.631402
1.54075E-6	-46.639407
1.540795E-6	-46.665527
1.54084E-6	-46.734593
1.540885E-6	-46.74895
1.54093E-6	-46.765416
1.540975E-6	-46.763355
1.54102E-6	-46.755118
1.541065E-6	-46.744843
1.54111E-6	-46.7305
1.541155E-6	-46.683703
1.5412E-6	-46.619421
1.541245E-6	-46.556077
1.54129E-6	-46.552149
1.541335E-6	-46.513058
1.54138E-6	-46.513058
1.541425E-6	-46.511113
1.54147E-6	-46.538427
1.541515E-6	-46.528652
1.54156E-6	-46.546263
1.541605E-6	-46.613443
1.54165E-6	-46.653452
1.541695E-6	-46.647427
1.54174E-6	-46.665527
1.541785E-6	-46.643415
1.54183E-6	-46.637404
1.541875E-6	-46.637404
1.54192E-6	-46.603498
1.541965E-6	-46.585655
1.54201E-6	-46.507225
1.542055E-6	-46.447401
1.5421E-6	-46.420652
1.542145E-6	-46.416844
1.54219E-6	-46.428277
1.542235E-6	-46.428277
1.54228E-6	-46.430186
1.542325E-6	-46.434006
1.54237E-6	-46.470461
1.542415E-6	-46.516951
1.54246E-6	-46.5738
1.542505E-6	-46.583677
1.54255E-6	-46.575773
1.542595E-6	-46.558043
1.54264E-6	-46.567884
1.542685E-6	-46.577748
1.54273E-6	-46.556077
1.542775E-6	-46.483969
1.54282E-6	-46.416844
1.542865E-6	-46.365761
1.54291E-6	-46.358244
1.542955E-6	-46.369524
1.543E-6	-46.373291
1.543045E-6	-46.371407
1.54309E-6	-46.35449
1.543135E-6	-46.382722
1.54318E-6	-46.435917
1.543225E-6	-46.501399
1.54327E-6	-46.544302
1.543315E-6	-46.524748
1.54336E-6	-46.524748
1.543405E-6	-46.509168
1.54345E-6	-46.534514
1.543495E-6	-46.534514
1.54354E-6	-46.499459
1.543585E-6	-46.403542
1.54363E-6	-46.362001
1.543675E-6	-46.337639
1.54372E-6	-46.348866
1.543765E-6	-46.332036
1.54381E-6	-46.358244
1.543855E-6	-46.34512
1.5439E-6	-46.343249
1.543945E-6	-46.382722
1.54399E-6	-46.462761
1.544035E-6	-46.530605
1.54408E-6	-46.546263
1.544125E-6	-46.528652
1.54417E-6	-46.530605
1.544215E-6	-46.528652
1.54426E-6	-46.544302
1.544305E-6	-46.520848
1.54435E-6	-46.468535
1.544395E-6	-46.411138
1.54444E-6	-46.358244
1.544485E-6	-46.352614
1.54453E-6	-46.367642
1.544575E-6	-46.36388
1.54462E-6	-46.35449
1.544665E-6	-46.356366
1.54471E-6	-46.367642
1.544755E-6	-46.439741
1.5448E-6	-46.532559
1.544845E-6	-46.560009
1.54489E-6	-46.550186
1.544935E-6	-46.544302
1.54498E-6	-46.542343
1.545025E-6	-46.518899
1.54507E-6	-46.29672
1.545115E-6	-42.302535
1.54516E-6	-32.89375
1.545205E-6	-27.619539
1.54525E-6	-25.525319
1.545295E-6	-25.014138
1.54534E-6	-24.967542
1.545385E-6	-24.933597
1.54543E-6	-24.958011
1.545475E-6	-25.37153
1.54552E-6	-27.387371
1.545565E-6	-32.164537
1.54561E-6	-40.351278
1.545655E-6	-45.562678
1.5457E-6	-46.403542
1.545745E-6	-46.561977
1.54579E-6	-46.599527
1.545835E-6	-46.611453
1.54588E-6	-46.615435
1.545925E-6	-46.593576
1.54597E-6	-46.520848
1.546015E-6	-46.462761
1.54606E-6	-46.445485
1.546105E-6	-46.455074
1.54615E-6	-46.453154
1.546195E-6	-46.437829
1.54624E-6	-46.441655
1.546285E-6	-46.462761
1.54633E-6	-46.511113
1.546375E-6	-46.593576
1.54642E-6	-46.635403
1.546465E-6	-46.649435
1.54651E-6	-46.661499
1.546555E-6	-46.667543
1.5466E-6	-46.685727
1.546645E-6	-46.68168
1.54669E-6	-46.671577
1.546735E-6	-46.623411
1.54678E-6	-46.567884
1.546825E-6	-46.522798
1.54687E-6	-46.518899
1.546915E-6	-46.509168
1.54696E-6	-46.509168
1.547005E-6	-46.507225
1.54705E-6	-46.518899
1.547095E-6	-46.542343
1.54714E-6	-46.599527
1.547185E-6	-46.657474
1.54723E-6	-46.714166
1.547275E-6	-46.724367
1.54732E-6	-46.74074
1.547365E-6	-46.742791
1.54741E-6	-46.744843
1.547455E-6	-46.732546
1.5475E-6	-46.724367
1.547545E-6	-46.679657
1.54759E-6	-46.619421
1.547635E-6	-46.581699
1.54768E-6	-46.567884
1.547725E-6	-46.569855
1.54777E-6	-46.556077
1.547815E-6	-46.579723
1.54786E-6	-46.589614
1.547905E-6	-46.621416
1.54795E-6	-46.661499
1.547995E-6	-46.746896
1.54804E-6	-46.781945
1.548085E-6	-46.794383
1.54813E-6	-46.813107
1.548175E-6	-46.819367
1.54822E-6	-46.802695
1.548265E-6	-46.806857
1.54831E-6	-46.784016
1.548355E-6	-46.742791
1.5484E-6	-46.66956
1.548445E-6	-46.647427
1.54849E-6	-46.627405
1.548535E-6	-46.619421
1.54858E-6	-46.623411
1.548625E-6	-46.631402
1.54867E-6	-46.653452
1.548715E-6	-46.677636
1.54876E-6	-46.734593
1.548805E-6	-46.802695
1.54885E-6	-46.844495
1.548895E-6	-46.85922
1.54894E-6	-46.861328
1.548985E-6	-46.863437
1.54903E-6	-46.855008
1.549075E-6	-46.848697
1.54912E-6	-46.821455
1.549165E-6	-46.765416
1.54921E-6	-46.693833
1.549255E-6	-46.657474
1.5493E-6	-46.647427
1.549345E-6	-46.661499
1.54939E-6	-46.667543
1.549435E-6	-46.679657
1.54948E-6	-46.667543
1.549525E-6	-46.710091
1.54957E-6	-46.781945
1.549615E-6	-46.85922
1.54966E-6	-46.88458
1.549705E-6	-46.899443
1.54975E-6	-46.88458
1.549795E-6	-46.861328
1.54984E-6	-46.769543
1.549885E-6	-46.161846
1.54993E-6	-38.416375
1.549975E-6	-29.698052
1.55002E-6	-26.048484
1.550065E-6	-24.943075
1.55011E-6	-24.7379
1.550155E-6	-24.70313
1.5502E-6	-24.689045
1.550245E-6	-24.73144
1.55029E-6	-25.543958
1.550335E-6	-28.461851
1.55038E-6	-35.023794
1.550425E-6	-43.405592
1.55047E-6	-46.302277
1.550515E-6	-46.771607
1.55056E-6	-46.861328
1.550605E-6	-46.880343
1.55065E-6	-46.893067
1.550695E-6	-46.890944
1.55074E-6	-46.844495
1.550785E-6	-46.763355
1.55083E-6	-46.697892
1.550875E-6	-46.675615
1.55092E-6	-46.679657
1.550965E-6	-46.685727
1.55101E-6	-46.685727
1.551055E-6	-46.667543
1.5511E-6	-46.689778
1.551145E-6	-46.753061
1.55119E-6	-46.840297
1.551235E-6	-46.897316
1.55128E-6	-46.90157
1.551325E-6	-46.893067
1.55137E-6	-46.88458
1.551415E-6	-46.882461
1.55146E-6	-46.895191
1.551505E-6	-46.893067
1.55155E-6	-46.823545
1.551595E-6	-46.728455
1.55164E-6	-46.677636
1.551685E-6	-46.673596
1.55173E-6	-46.673596
1.551775E-6	-46.671577
1.55182E-6	-46.675615
1.551865E-6	-46.667543
1.55191E-6	-46.675615
1.551955E-6	-46.755118
1.552E-6	-46.848697
1.552045E-6	-46.876111
1.55209E-6	-46.890944
1.552135E-6	-46.873996
1.55218E-6	-46.88458
1.552225E-6	-46.893067
1.55227E-6	-46.895191
1.552315E-6	-46.878226
1.55236E-6	-46.792308
1.552405E-6	-46.691805
1.55245E-6	-46.653452
1.552495E-6	-46.649435
1.55254E-6	-46.667543
1.552585E-6	-46.655462
1.55263E-6	-46.643415
1.552675E-6	-46.647427
1.55272E-6	-46.66956
1.552765E-6	-46.757175
1.55281E-6	-46.840297
1.552855E-6	-46.863437
1.5529E-6	-46.863437
1.552945E-6	-46.867657
1.55299E-6	-46.880343
1.553035E-6	-46.876111
1.55308E-6	-46.876111
1.553125E-6	-46.842395
1.55317E-6	-46.757175
1.553215E-6	-46.663512
1.55326E-6	-46.643415
1.553305E-6	-46.633402
1.55335E-6	-46.629403
1.553395E-6	-46.611453
1.55344E-6	-46.607474
1.553485E-6	-46.619421
1.55353E-6	-46.671577
1.553575E-6	-46.753061
1.55362E-6	-46.819367
1.553665E-6	-46.844495
1.55371E-6	-46.85922
1.553755E-6	-46.861328
1.5538E-6	-46.855008
1.553845E-6	-46.855008
1.55389E-6	-46.855008
1.553935E-6	-46.802695
1.55398E-6	-46.728455
1.554025E-6	-46.649435
1.55407E-6	-46.623411
1.554115E-6	-46.611453
1.55416E-6	-46.601512
1.554205E-6	-46.589614
1.55425E-6	-46.599527
1.554295E-6	-46.607474
1.55434E-6	-46.653452
1.554385E-6	-46.73869
1.55443E-6	-46.817279
1.554475E-6	-46.834007
1.55452E-6	-46.844495
1.554565E-6	-46.852903
1.55461E-6	-46.857113
1.554655E-6	-46.844495
1.5547E-6	-46.838199
1.554745E-6	-46.78816
1.55479E-6	-46.701955
1.554835E-6	-46.623411
1.55488E-6	-46.595559
1.554925E-6	-46.581699
1.55497E-6	-46.577748
1.555015E-6	-46.563945
1.55506E-6	-46.579723
1.555105E-6	-46.595559
1.55515E-6	-46.643415
1.555195E-6	-46.722325
1.55524E-6	-46.811023
1.555285E-6	-46.821455
1.55533E-6	-46.840297
1.555375E-6	-46.844495
1.55542E-6	-46.842395
1.555465E-6	-46.838199
1.55551E-6	-46.823545
1.555555E-6	-46.790233
1.5556E-6	-46.687752
1.555645E-6	-46.621416
1.55569E-6	-46.593576
1.555735E-6	-46.5738
1.55578E-6	-46.577748
1.555825E-6	-46.569855
1.55587E-6	-46.583677
1.555915E-6	-46.601512
1.55596E-6	-46.647427
1.556005E-6	-46.724367
1.55605E-6	-46.808939
1.556095E-6	-46.846595
1.55614E-6	-46.861328
1.556185E-6	-46.85922
1.55623E-6	-46.848697
1.556275E-6	-46.844495
1.55632E-6	-46.831912
1.556365E-6	-46.806857
1.55641E-6	-46.706021
1.556455E-6	-46.621416
1.5565E-6	-46.585655
1.556545E-6	-46.579723
1.55659E-6	-46.597542
1.556635E-6	-46.597542
1.55668E-6	-46.609463
1.556725E-6	-46.617428
1.55677E-6	-46.661499
1.556815E-6	-46.765416
1.55686E-6	-46.848697
1.556905E-6	-46.890944
1.55695E-6	-46.893067
1.556995E-6	-46.888822
1.55704E-6	-46.878226
1.557085E-6	-46.890944
1.55713E-6	-46.888822
1.557175E-6	-46.846595
1.55722E-6	-46.746896
1.557265E-6	-46.665527
1.55731E-6	-46.635403
1.557355E-6	-46.635403
1.5574E-6	-46.653452
1.557445E-6	-46.653452
1.55749E-6	-46.659486
1.557535E-6	-46.663512
1.55758E-6	-46.726411
1.557625E-6	-46.829819
1.55767E-6	-46.931463
1.557715E-6	-46.959405
1.55776E-6	-46.957249
1.557805E-6	-46.948637
1.55785E-6	-46.959405
1.557895E-6	-46.955095
1.55794E-6	-46.974526
1.557985E-6	-46.920763
1.55803E-6	-46.825635
1.558075E-6	-46.736641
1.55812E-6	-46.718243
1.558165E-6	-46.722325
1.55821E-6	-46.74074
1.558255E-6	-46.74074
1.5583E-6	-46.753061
1.558345E-6	-46.761294
1.55839E-6	-46.817279
1.558435E-6	-46.942188
1.55848E-6	-47.035542
1.558525E-6	-47.055338
1.55857E-6	-47.061956
1.558615E-6	-47.07301
1.55866E-6	-47.077439
1.558705E-6	-47.088532
1.55875E-6	-47.097427
1.558795E-6	-47.050931
1.55884E-6	-46.950788
1.558885E-6	-46.869769
1.55893E-6	-46.85922
1.558975E-6	-46.878226
1.55902E-6	-46.8867
1.559065E-6	-46.890944
1.55911E-6	-46.8867
1.559155E-6	-46.922901
1.5592E-6	-46.974526
1.559245E-6	-47.097427
1.55929E-6	-47.205612
1.559335E-6	-47.219327
1.55938E-6	-47.228494
1.559425E-6	-47.242281
1.55947E-6	-47.251497
1.559515E-6	-47.276942
1.55956E-6	-47.269987
1.559605E-6	-47.230789
1.55965E-6	-47.128704
1.559695E-6	-47.064165
1.55974E-6	-47.053134
1.559785E-6	-47.070797
1.55983E-6	-47.079656
1.559875E-6	-47.081873
1.55992E-6	-47.090754
1.559965E-6	-47.117508
1.56001E-6	-47.203331
1.560055E-6	-47.309543
1.5601E-6	-47.413627
1.560145E-6	-47.430418
1.56019E-6	-47.447275
1.560235E-6	-47.459355
1.56028E-6	-47.464197
1.560325E-6	-47.500682
1.56037E-6	-47.488487
1.560415E-6	-47.447275
1.56046E-6	-47.349462
1.560505E-6	-47.297871
1.56055E-6	-47.297871
1.560595E-6	-47.31422
1.56064E-6	-47.318903
1.560685E-6	-47.321246
1.56073E-6	-47.33298
1.560775E-6	-47.358908
1.56082E-6	-47.435228
1.560865E-6	-47.557229
1.56091E-6	-47.644716
1.560955E-6	-47.675121
1.561E-6	-47.682756
1.561045E-6	-47.710866
1.56109E-6	-47.74174
1.561135E-6	-47.75208
1.56118E-6	-47.74174
1.561225E-6	-47.705742
1.56127E-6	-47.629592
1.561315E-6	-47.574586
1.56136E-6	-47.574586
1.561405E-6	-47.584535
1.56145E-6	-47.589518
1.561495E-6	-47.607005
1.56154E-6	-47.624563
1.561585E-6	-47.657359
1.56163E-6	-47.728849
1.561675E-6	-47.835702
1.56172E-6	-47.918275
1.561765E-6	-47.961515
1.56181E-6	-47.983298
1.561855E-6	-48.010681
1.5619E-6	-48.021683
1.561945E-6	-48.041003
1.56199E-6	-48.046539
1.562035E-6	-48.016179
1.56208E-6	-47.956087
1.562125E-6	-47.891466
1.56217E-6	-47.883456
1.562215E-6	-47.878124
1.56226E-6	-47.888795
1.562305E-6	-47.90217
1.56235E-6	-47.931741
1.562395E-6	-47.953375
1.56244E-6	-48.021683
1.562485E-6	-48.133261
1.56253E-6	-48.224635
1.562575E-6	-48.265224
1.56262E-6	-48.309136
1.562665E-6	-48.329782
1.56271E-6	-48.344589
1.562755E-6	-48.365404
1.5628E-6	-48.365404
1.562845E-6	-48.350526
1.56289E-6	-48.282735
1.562935E-6	-48.233301
1.56298E-6	-48.210231
1.563025E-6	-48.201611
1.56307E-6	-48.22175
1.563115E-6	-48.244882
1.56316E-6	-48.268137
1.563205E-6	-48.306195
1.56325E-6	-48.350526
1.563295E-6	-48.4649
1.56334E-6	-48.566729
1.563385E-6	-48.616973
1.56343E-6	-48.645493
