Wavelength (nm)	Power (dBm)
1.525E-6	-49.755143
1.525045E-6	-49.669786
1.52509E-6	-49.578184
1.525135E-6	-49.500071
1.52518E-6	-49.400581
1.525225E-6	-49.284862
1.52527E-6	-49.197344
1.525315E-6	-49.115095
1.52536E-6	-49.062282
1.525405E-6	-48.965384
1.52545E-6	-48.890738
1.525495E-6	-48.807441
1.52554E-6	-48.725712
1.525585E-6	-48.658229
1.52563E-6	-48.613816
1.525675E-6	-48.523237
1.52572E-6	-48.443604
1.525765E-6	-48.383326
1.52581E-6	-48.294449
1.525855E-6	-48.22175
1.5259E-6	-48.181564
1.525945E-6	-48.096683
1.52599E-6	-48.035475
1.526035E-6	-47.964232
1.52608E-6	-47.907532
1.526125E-6	-47.846268
1.52617E-6	-47.796304
1.526215E-6	-47.736579
1.52626E-6	-47.682756
1.526305E-6	-47.619539
1.52635E-6	-47.584535
1.526395E-6	-47.517814
1.52644E-6	-47.435228
1.526485E-6	-47.396901
1.52653E-6	-47.351822
1.526575E-6	-47.302536
1.52662E-6	-47.242281
1.526665E-6	-47.212464
1.52671E-6	-47.166988
1.526755E-6	-47.113037
1.5268E-6	-47.059749
1.526845E-6	-47.028963
1.52689E-6	-47.004927
1.526935E-6	-46.940041
1.52698E-6	-46.895191
1.527025E-6	-46.861328
1.52707E-6	-46.831912
1.527115E-6	-46.790233
1.52716E-6	-46.759234
1.527205E-6	-46.701955
1.52725E-6	-46.655462
1.527295E-6	-46.659486
1.52734E-6	-46.617428
1.527385E-6	-46.595559
1.52743E-6	-46.554113
1.527475E-6	-46.516951
1.52752E-6	-46.474316
1.527565E-6	-46.491707
1.52761E-6	-46.458916
1.527655E-6	-46.418747
1.5277E-6	-46.365761
1.527745E-6	-46.35449
1.52779E-6	-46.337639
1.527835E-6	-46.300424
1.52788E-6	-46.294869
1.527925E-6	-46.259853
1.52797E-6	-46.221476
1.528015E-6	-46.230582
1.52806E-6	-46.212388
1.528105E-6	-46.210573
1.52815E-6	-46.181632
1.528195E-6	-46.133227
1.52824E-6	-46.124322
1.528285E-6	-46.122543
1.52833E-6	-46.106567
1.528375E-6	-46.110112
1.52842E-6	-46.078309
1.528465E-6	-46.07303
1.52851E-6	-46.051982
1.528555E-6	-46.044989
1.5286E-6	-46.067759
1.528645E-6	-46.029295
1.52869E-6	-46.006725
1.528735E-6	-46.015392
1.52878E-6	-46.03452
1.528825E-6	-45.982549
1.52887E-6	-45.985995
1.528915E-6	-45.965363
1.52896E-6	-45.958508
1.529005E-6	-45.961934
1.52905E-6	-45.948245
1.529095E-6	-45.949953
1.52914E-6	-45.961934
1.529185E-6	-45.931193
1.52923E-6	-45.909126
1.529275E-6	-45.920995
1.52932E-6	-45.944829
1.529365E-6	-45.934598
1.52941E-6	-45.90405
1.529455E-6	-45.888856
1.5295E-6	-45.872036
1.529545E-6	-45.885487
1.52959E-6	-45.893915
1.529635E-6	-45.893915
1.52968E-6	-45.880438
1.529725E-6	-45.88212
1.52977E-6	-45.848596
1.529815E-6	-45.875395
1.52986E-6	-45.877075
1.529905E-6	-45.856953
1.52995E-6	-45.880438
1.529995E-6	-45.861975
1.53004E-6	-45.877075
1.530085E-6	-45.86365
1.53013E-6	-45.856953
1.530175E-6	-45.900669
1.53022E-6	-45.883803
1.530265E-6	-45.875395
1.53031E-6	-45.870357
1.530355E-6	-45.88212
1.5304E-6	-45.887171
1.530445E-6	-45.895602
1.53049E-6	-45.867002
1.530535E-6	-45.895602
1.53058E-6	-45.89729
1.530625E-6	-45.878756
1.53067E-6	-45.914209
1.530715E-6	-45.909126
1.53076E-6	-45.888856
1.530805E-6	-45.89729
1.53085E-6	-45.922693
1.530895E-6	-45.929492
1.53094E-6	-45.934598
1.530985E-6	-45.941416
1.53103E-6	-45.941416
1.531075E-6	-45.949953
1.53112E-6	-45.973948
1.531165E-6	-45.951663
1.53121E-6	-45.956795
1.531255E-6	-45.968795
1.5313E-6	-45.982549
1.531345E-6	-46.001533
1.53139E-6	-45.998075
1.531435E-6	-45.999804
1.53148E-6	-46.027554
1.531525E-6	-46.03452
1.53157E-6	-46.032777
1.531615E-6	-46.064248
1.53166E-6	-46.067759
1.531705E-6	-46.046736
1.53175E-6	-46.11366
1.531795E-6	-46.11366
1.53184E-6	-46.103025
1.531885E-6	-46.143937
1.53193E-6	-46.140364
1.531975E-6	-46.133227
1.53202E-6	-46.149302
1.532065E-6	-46.174427
1.53211E-6	-46.217839
1.532155E-6	-46.210573
1.5322E-6	-46.221476
1.532245E-6	-46.245193
1.53229E-6	-46.259853
1.532335E-6	-46.283781
1.53238E-6	-46.302277
1.532425E-6	-46.324577
1.53247E-6	-46.309698
1.532515E-6	-46.34512
1.53256E-6	-46.348866
1.532605E-6	-46.403542
1.53265E-6	-46.411138
1.532695E-6	-46.428277
1.53274E-6	-46.451236
1.532785E-6	-46.443569
1.53283E-6	-46.476245
1.532875E-6	-46.53647
1.53292E-6	-46.53647
1.532965E-6	-46.548224
1.53301E-6	-46.567884
1.533055E-6	-46.597542
1.5331E-6	-46.657474
1.533145E-6	-46.663512
1.53319E-6	-46.679657
1.533235E-6	-46.685727
1.53328E-6	-46.7305
1.533325E-6	-46.744843
1.53337E-6	-46.802695
1.533415E-6	-46.815193
1.53346E-6	-46.831912
1.533505E-6	-46.840297
1.53355E-6	-46.863437
1.533595E-6	-46.905828
1.53364E-6	-46.922901
1.533685E-6	-46.972363
1.53373E-6	-47.007107
1.533775E-6	-47.013652
1.53382E-6	-47.061956
1.533865E-6	-47.07301
1.53391E-6	-47.101882
1.533955E-6	-47.144427
1.534E-6	-47.142177
1.534045E-6	-47.18285
1.53409E-6	-47.242281
1.534135E-6	-47.249191
1.53418E-6	-47.31422
1.534225E-6	-47.304871
1.53427E-6	-47.33298
1.534315E-6	-47.354183
1.53436E-6	-47.380238
1.534405E-6	-47.437635
1.53445E-6	-47.459355
1.534495E-6	-47.469044
1.53454E-6	-47.508016
1.534585E-6	-47.557229
1.53463E-6	-47.577071
1.534675E-6	-47.62205
1.53472E-6	-47.654827
1.534765E-6	-47.675121
1.53481E-6	-47.705742
1.534855E-6	-47.736579
1.5349E-6	-47.775437
1.534945E-6	-47.809397
1.53499E-6	-47.8199
1.535035E-6	-47.870138
1.53508E-6	-47.880789
1.535125E-6	-47.920965
1.53517E-6	-47.956087
1.535215E-6	-47.980569
1.53526E-6	-48.002448
1.535305E-6	-48.065971
1.53535E-6	-48.074325
1.535395E-6	-48.127614
1.53544E-6	-48.158766
1.535485E-6	-48.16161
1.53553E-6	-48.190144
1.535575E-6	-48.233301
1.53562E-6	-48.247782
1.535665E-6	-48.31208
1.53571E-6	-48.297383
1.535755E-6	-48.309136
1.5358E-6	-48.326827
1.535845E-6	-48.374356
1.53589E-6	-48.410347
1.535935E-6	-48.434508
1.53598E-6	-48.452718
1.536025E-6	-48.480176
1.53607E-6	-48.513973
1.536115E-6	-48.544928
1.53616E-6	-48.557372
1.536205E-6	-48.585502
1.53625E-6	-48.601209
1.536295E-6	-48.607508
1.53634E-6	-48.661419
1.536385E-6	-48.693447
1.53643E-6	-48.696662
1.536475E-6	-48.732194
1.53652E-6	-48.738686
1.536565E-6	-48.732194
1.53661E-6	-48.78112
1.536655E-6	-48.837244
1.5367E-6	-48.827287
1.536745E-6	-48.857227
1.53679E-6	-48.843895
1.536835E-6	-48.880657
1.53688E-6	-48.910969
1.536925E-6	-48.917733
1.53697E-6	-48.948306
1.537015E-6	-48.92112
1.53706E-6	-48.955129
1.537105E-6	-49.017025
1.53715E-6	-48.982529
1.537195E-6	-49.017025
1.53724E-6	-49.017025
1.537285E-6	-49.055289
1.53733E-6	-49.034376
1.537375E-6	-49.076303
1.53742E-6	-49.072794
1.537465E-6	-49.076303
1.53751E-6	-49.086848
1.537555E-6	-49.104481
1.5376E-6	-49.104481
1.537645E-6	-49.147094
1.53769E-6	-49.147094
1.537735E-6	-49.154237
1.53778E-6	-49.168559
1.537825E-6	-49.168559
1.53787E-6	-49.179331
1.537915E-6	-49.193735
1.53796E-6	-49.182927
1.538005E-6	-49.182927
1.53805E-6	-49.193735
1.538095E-6	-49.200955
1.53814E-6	-49.211808
1.538185E-6	-49.197344
1.53823E-6	-49.20457
1.538275E-6	-49.226321
1.53832E-6	-49.215432
1.538365E-6	-49.200955
1.53841E-6	-49.200955
1.538455E-6	-49.240882
1.5385E-6	-49.251836
1.538545E-6	-49.237237
1.53859E-6	-49.259153
1.538635E-6	-49.277501
1.53868E-6	-49.262816
1.538725E-6	-49.273825
1.53877E-6	-49.273825
1.538815E-6	-49.270153
1.53886E-6	-49.237237
1.538905E-6	-49.262816
1.53895E-6	-49.28118
1.538995E-6	-49.251836
1.53904E-6	-49.226321
1.539085E-6	-49.262816
1.53913E-6	-49.237237
1.539175E-6	-49.251836
1.53922E-6	-49.262816
1.539265E-6	-49.226321
1.53931E-6	-49.211808
1.539355E-6	-49.233596
1.5394E-6	-49.262816
1.539445E-6	-49.270153
1.53949E-6	-49.273825
1.539535E-6	-49.251836
1.53958E-6	-49.240882
1.539625E-6	-49.226321
1.53967E-6	-49.24453
1.539715E-6	-49.240882
1.53976E-6	-49.240882
1.539805E-6	-49.208188
1.53985E-6	-49.215432
1.539895E-6	-49.182927
1.53994E-6	-49.186527
1.539985E-6	-49.193735
1.54003E-6	-49.20457
1.540075E-6	-49.182927
1.54012E-6	-49.19013
1.540165E-6	-49.182927
1.54021E-6	-49.179331
1.540255E-6	-49.197344
1.5403E-6	-49.182927
1.540345E-6	-49.157813
1.54039E-6	-49.172146
1.540435E-6	-49.193735
1.54048E-6	-49.161392
1.540525E-6	-49.150664
1.54057E-6	-49.139963
1.540615E-6	-49.111554
1.54066E-6	-49.118639
1.540705E-6	-49.093893
1.54075E-6	-49.118639
1.540795E-6	-49.118639
1.54084E-6	-49.097419
1.540885E-6	-49.115095
1.54093E-6	-49.111554
1.540975E-6	-49.115095
1.54102E-6	-49.108016
1.541065E-6	-49.104481
1.54111E-6	-49.069287
1.541155E-6	-49.079815
1.5412E-6	-49.076303
1.541245E-6	-49.04482
1.54129E-6	-49.055289
1.541335E-6	-49.027427
1.54138E-6	-49.037854
1.541425E-6	-49.048306
1.54147E-6	-49.0309
1.541515E-6	-49.034376
1.54156E-6	-49.006647
1.541605E-6	-49.013563
1.54165E-6	-49.003194
1.541695E-6	-48.996295
1.54174E-6	-49.010104
1.541785E-6	-48.985966
1.54183E-6	-48.975663
1.541875E-6	-48.992849
1.54192E-6	-48.979095
1.541965E-6	-48.968807
1.54201E-6	-48.948306
1.542055E-6	-48.948306
1.5421E-6	-48.917733
1.542145E-6	-48.948306
1.54219E-6	-48.941493
1.542235E-6	-48.961963
1.54228E-6	-48.934691
1.542325E-6	-48.90759
1.54237E-6	-48.90759
1.542415E-6	-48.897471
1.54246E-6	-48.9279
1.542505E-6	-48.9279
1.54255E-6	-48.92112
1.542595E-6	-48.904215
1.54264E-6	-48.9279
1.542685E-6	-48.894103
1.54273E-6	-48.887375
1.542775E-6	-48.894103
1.54282E-6	-48.860566
1.542865E-6	-48.857227
1.54291E-6	-48.85389
1.542955E-6	-48.857227
1.543E-6	-48.863908
1.543045E-6	-48.863908
1.54309E-6	-48.863908
1.543135E-6	-48.857227
1.54318E-6	-48.85389
1.543225E-6	-48.860566
1.54327E-6	-48.897471
1.543315E-6	-48.860566
1.54336E-6	-48.8706
1.543405E-6	-48.894103
1.54345E-6	-48.87395
1.543495E-6	-48.884015
1.54354E-6	-48.884015
1.543585E-6	-48.863908
1.54363E-6	-48.837244
1.543675E-6	-48.827287
1.54372E-6	-48.827287
1.543765E-6	-48.837244
1.54381E-6	-48.843895
1.543855E-6	-48.843895
1.5439E-6	-48.860566
1.543945E-6	-48.840568
1.54399E-6	-48.8706
1.544035E-6	-48.863908
1.54408E-6	-48.863908
1.544125E-6	-48.833923
1.54417E-6	-48.863908
1.544215E-6	-48.843895
1.54426E-6	-48.843895
1.544305E-6	-48.863908
1.54435E-6	-48.833923
1.544395E-6	-48.843895
1.54444E-6	-48.823973
1.544485E-6	-48.827287
1.54453E-6	-48.843895
1.544575E-6	-48.840568
1.54462E-6	-48.833923
1.544665E-6	-48.85389
1.54471E-6	-48.830604
1.544755E-6	-48.85389
1.5448E-6	-48.887375
1.544845E-6	-48.8706
1.54489E-6	-48.87395
1.544935E-6	-48.843895
1.54498E-6	-48.85389
1.545025E-6	-48.867253
1.54507E-6	-48.8706
1.545115E-6	-48.291518
1.54516E-6	-43.685562
1.545205E-6	-39.362914
1.54525E-6	-37.416022
1.545295E-6	-36.882461
1.54534E-6	-36.865546
1.545385E-6	-36.825635
1.54543E-6	-36.800616
1.545475E-6	-37.146678
1.54552E-6	-39.04482
1.545565E-6	-43.106911
1.54561E-6	-47.886124
1.545655E-6	-48.810742
1.5457E-6	-48.884015
1.545745E-6	-48.91435
1.54579E-6	-48.9279
1.545835E-6	-48.931295
1.54588E-6	-48.941493
1.545925E-6	-48.9279
1.54597E-6	-48.890738
1.546015E-6	-48.91435
1.54606E-6	-48.92112
1.546105E-6	-48.92112
1.54615E-6	-48.92112
1.546195E-6	-48.917733
1.54624E-6	-48.91435
1.546285E-6	-48.90759
1.54633E-6	-48.9279
1.546375E-6	-48.951716
1.54642E-6	-48.944898
1.546465E-6	-48.951716
1.54651E-6	-48.955129
1.546555E-6	-48.968807
1.5466E-6	-48.972234
1.546645E-6	-48.968807
1.54669E-6	-48.989406
1.546735E-6	-48.958544
1.54678E-6	-48.958544
1.546825E-6	-48.982529
1.54687E-6	-48.972234
1.546915E-6	-48.985966
1.54696E-6	-48.979095
1.547005E-6	-48.955129
1.54705E-6	-48.968807
1.547095E-6	-48.989406
1.54714E-6	-49.013563
1.547185E-6	-49.027427
1.54723E-6	-48.982529
1.547275E-6	-49.010104
1.54732E-6	-49.0309
1.547365E-6	-48.999743
1.54741E-6	-49.034376
1.547455E-6	-49.020489
1.5475E-6	-49.017025
1.547545E-6	-49.006647
1.54759E-6	-49.017025
1.547635E-6	-49.0309
1.54768E-6	-49.051796
1.547725E-6	-48.999743
1.54777E-6	-49.010104
1.547815E-6	-49.034376
1.54786E-6	-49.051796
1.547905E-6	-49.065783
1.54795E-6	-49.051796
1.547995E-6	-49.076303
1.54804E-6	-49.048306
1.548085E-6	-49.065783
1.54813E-6	-49.104481
1.548175E-6	-49.08333
1.54822E-6	-49.076303
1.548265E-6	-49.076303
1.54831E-6	-49.072794
1.548355E-6	-49.055289
1.5484E-6	-49.072794
1.548445E-6	-49.051796
1.54849E-6	-49.062282
1.548535E-6	-49.069287
1.54858E-6	-49.076303
1.548625E-6	-49.08333
1.54867E-6	-49.08333
1.548715E-6	-49.097419
1.54876E-6	-49.08333
1.548805E-6	-49.104481
1.54885E-6	-49.104481
1.548895E-6	-49.100949
1.54894E-6	-49.136402
1.548985E-6	-49.093893
1.54903E-6	-49.115095
1.549075E-6	-49.104481
1.54912E-6	-49.136402
1.549165E-6	-49.111554
1.54921E-6	-49.104481
1.549255E-6	-49.108016
1.5493E-6	-49.108016
1.549345E-6	-49.079815
1.54939E-6	-49.104481
1.549435E-6	-49.136402
1.54948E-6	-49.108016
1.549525E-6	-49.104481
1.54957E-6	-49.118639
1.549615E-6	-49.108016
1.54966E-6	-49.132843
1.549705E-6	-49.147094
1.54975E-6	-49.161392
1.549795E-6	-49.122186
1.54984E-6	-49.132843
1.549885E-6	-49.013563
1.54993E-6	-46.487837
1.549975E-6	-40.660574
1.55002E-6	-37.392133
1.550065E-6	-36.343249
1.55011E-6	-36.127882
1.550155E-6	-36.147513
1.5502E-6	-36.080069
1.550245E-6	-36.101254
1.55029E-6	-36.865546
1.550335E-6	-39.496202
1.55038E-6	-44.873156
1.550425E-6	-48.667805
1.55047E-6	-49.108016
1.550515E-6	-49.139963
1.55056E-6	-49.136402
1.550605E-6	-49.132843
1.55065E-6	-49.150664
1.550695E-6	-49.136402
1.55074E-6	-49.132843
1.550785E-6	-49.154237
1.55083E-6	-49.136402
1.550875E-6	-49.115095
1.55092E-6	-49.115095
1.550965E-6	-49.125735
1.55101E-6	-49.111554
1.551055E-6	-49.118639
1.5511E-6	-49.104481
1.551145E-6	-49.129288
1.55119E-6	-49.161392
1.551235E-6	-49.164974
1.55128E-6	-49.143527
1.551325E-6	-49.150664
1.55137E-6	-49.154237
1.551415E-6	-49.125735
1.55146E-6	-49.143527
1.551505E-6	-49.143527
1.55155E-6	-49.129288
1.551595E-6	-49.125735
1.55164E-6	-49.108016
1.551685E-6	-49.118639
1.55173E-6	-49.115095
1.551775E-6	-49.115095
1.55182E-6	-49.097419
1.551865E-6	-49.093893
1.55191E-6	-49.104481
1.551955E-6	-49.118639
1.552E-6	-49.147094
1.552045E-6	-49.150664
1.55209E-6	-49.136402
1.552135E-6	-49.104481
1.55218E-6	-49.136402
1.552225E-6	-49.136402
1.55227E-6	-49.139963
1.552315E-6	-49.136402
1.55236E-6	-49.136402
1.552405E-6	-49.079815
1.55245E-6	-49.069287
1.552495E-6	-49.111554
1.55254E-6	-49.115095
1.552585E-6	-49.090369
1.55263E-6	-49.125735
1.552675E-6	-49.086848
1.55272E-6	-49.104481
1.552765E-6	-49.111554
1.55281E-6	-49.125735
1.552855E-6	-49.122186
1.5529E-6	-49.111554
1.552945E-6	-49.090369
1.55299E-6	-49.129288
1.553035E-6	-49.111554
1.55308E-6	-49.118639
1.553125E-6	-49.093893
1.55317E-6	-49.108016
1.553215E-6	-49.062282
1.55326E-6	-49.086848
1.553305E-6	-49.058784
1.55335E-6	-49.072794
1.553395E-6	-49.058784
1.55344E-6	-49.072794
1.553485E-6	-49.079815
1.55353E-6	-49.072794
1.553575E-6	-49.079815
1.55362E-6	-49.122186
1.553665E-6	-49.108016
1.55371E-6	-49.097419
1.553755E-6	-49.065783
1.5538E-6	-49.093893
1.553845E-6	-49.100949
1.55389E-6	-49.100949
1.553935E-6	-49.058784
1.55398E-6	-49.062282
1.554025E-6	-49.076303
1.55407E-6	-49.051796
1.554115E-6	-49.08333
1.55416E-6	-49.04482
1.554205E-6	-49.062282
1.55425E-6	-49.055289
1.554295E-6	-49.058784
1.55434E-6	-49.079815
1.554385E-6	-49.072794
1.55443E-6	-49.076303
1.554475E-6	-49.048306
1.55452E-6	-49.065783
1.554565E-6	-49.108016
1.55461E-6	-49.093893
1.554655E-6	-49.108016
1.5547E-6	-49.076303
1.554745E-6	-49.048306
1.55479E-6	-49.055289
1.554835E-6	-49.051796
1.55488E-6	-49.04482
1.554925E-6	-49.051796
1.55497E-6	-49.020489
1.555015E-6	-49.020489
1.55506E-6	-49.048306
1.555105E-6	-49.051796
1.55515E-6	-49.04482
1.555195E-6	-49.062282
1.55524E-6	-49.08333
1.555285E-6	-49.072794
1.55533E-6	-49.093893
1.555375E-6	-49.093893
1.55542E-6	-49.090369
1.555465E-6	-49.108016
1.55551E-6	-49.04482
1.555555E-6	-49.048306
1.5556E-6	-49.055289
1.555645E-6	-49.093893
1.55569E-6	-49.058784
1.555735E-6	-49.04482
1.55578E-6	-49.055289
1.555825E-6	-49.013563
1.55587E-6	-49.062282
1.555915E-6	-49.034376
1.55596E-6	-49.076303
1.556005E-6	-49.072794
1.55605E-6	-49.072794
1.556095E-6	-49.100949
1.55614E-6	-49.079815
1.556185E-6	-49.097419
1.55623E-6	-49.072794
1.556275E-6	-49.072794
1.55632E-6	-49.062282
1.556365E-6	-49.069287
1.55641E-6	-49.065783
1.556455E-6	-49.062282
1.5565E-6	-49.062282
1.556545E-6	-49.048306
1.55659E-6	-49.04482
1.556635E-6	-49.072794
1.55668E-6	-49.090369
1.556725E-6	-49.062282
1.55677E-6	-49.037854
1.556815E-6	-49.072794
1.55686E-6	-49.086848
1.556905E-6	-49.108016
1.55695E-6	-49.111554
1.556995E-6	-49.104481
1.55704E-6	-49.108016
1.557085E-6	-49.097419
1.55713E-6	-49.122186
1.557175E-6	-49.104481
1.55722E-6	-49.115095
1.557265E-6	-49.086848
1.55731E-6	-49.090369
1.557355E-6	-49.090369
1.5574E-6	-49.08333
1.557445E-6	-49.118639
1.55749E-6	-49.097419
1.557535E-6	-49.129288
1.55758E-6	-49.118639
1.557625E-6	-49.143527
1.55767E-6	-49.161392
1.557715E-6	-49.161392
1.55776E-6	-49.179331
1.557805E-6	-49.168559
1.55785E-6	-49.161392
1.557895E-6	-49.154237
1.55794E-6	-49.19013
1.557985E-6	-49.200955
1.55803E-6	-49.175737
1.558075E-6	-49.157813
1.55812E-6	-49.143527
1.558165E-6	-49.182927
1.55821E-6	-49.172146
1.558255E-6	-49.168559
1.5583E-6	-49.197344
1.558345E-6	-49.150664
1.55839E-6	-49.186527
1.558435E-6	-49.237237
1.55848E-6	-49.251836
1.558525E-6	-49.251836
1.55857E-6	-49.255493
1.558615E-6	-49.259153
1.55866E-6	-49.259153
1.558705E-6	-49.262816
1.55875E-6	-49.28118
1.558795E-6	-49.303319
1.55884E-6	-49.273825
1.558885E-6	-49.277501
1.55893E-6	-49.273825
1.558975E-6	-49.28118
1.55902E-6	-49.292235
1.559065E-6	-49.292235
1.55911E-6	-49.299621
1.559155E-6	-49.318141
1.5592E-6	-49.325572
1.559245E-6	-49.362914
1.55929E-6	-49.3968
1.559335E-6	-49.377942
1.55938E-6	-49.385475
1.559425E-6	-49.393022
1.55947E-6	-49.41574
1.559515E-6	-49.419538
1.55956E-6	-49.453869
1.559605E-6	-49.438577
1.55965E-6	-49.430951
1.559695E-6	-49.419538
1.55974E-6	-49.430951
1.559785E-6	-49.461536
1.55983E-6	-49.457701
1.559875E-6	-49.469216
1.55992E-6	-49.457701
1.559965E-6	-49.476909
1.56001E-6	-49.50782
1.560055E-6	-49.550685
1.5601E-6	-49.558524
1.560145E-6	-49.54677
1.56019E-6	-49.562449
1.560235E-6	-49.578184
1.56028E-6	-49.597934
1.560325E-6	-49.609827
1.56037E-6	-49.613798
1.560415E-6	-49.613798
1.56046E-6	-49.609827
1.560505E-6	-49.621752
1.56055E-6	-49.629721
1.560595E-6	-49.637705
1.56064E-6	-49.649707
1.560685E-6	-49.633711
1.56073E-6	-49.649707
1.560775E-6	-49.689957
1.56082E-6	-49.714287
1.560865E-6	-49.722428
1.56091E-6	-49.746941
1.560955E-6	-49.746941
1.561E-6	-49.783973
1.561045E-6	-49.788107
1.56109E-6	-49.821323
1.561135E-6	-49.833845
1.56118E-6	-49.821323
1.561225E-6	-49.817157
1.56127E-6	-49.838026
1.561315E-6	-49.825493
1.56136E-6	-49.846402
1.561405E-6	-49.863203
1.56145E-6	-49.858997
1.561495E-6	-49.875846
1.56154E-6	-49.892761
1.561585E-6	-49.913998
1.56163E-6	-49.93962
1.561675E-6	-49.956786
1.56172E-6	-49.978339
1.561765E-6	-50.003476
1.56181E-6	-50.010436
1.561855E-6	-50.019151
1.5619E-6	-50.038825
1.561945E-6	-50.053749
1.56199E-6	-50.050233
1.562035E-6	-50.057709
1.56208E-6	-50.057709
1.562125E-6	-50.069166
1.56217E-6	-50.084638
1.562215E-6	-50.087739
1.56226E-6	-50.081539
1.562305E-6	-50.115748
1.56235E-6	-50.149779
1.562395E-6	-50.140798
1.56244E-6	-50.16509
1.562485E-6	-50.196784
1.56253E-6	-50.211806
1.562575E-6	-50.225508
1.56262E-6	-50.245222
1.562665E-6	-50.281214
1.56271E-6	-50.281214
1.562755E-6	-50.303977
1.5628E-6	-50.293278
1.562845E-6	-50.31377
1.56289E-6	-50.307239
1.562935E-6	-50.323116
1.56298E-6	-50.335767
1.563025E-6	-50.350336
1.56307E-6	-50.34187
1.563115E-6	-50.377254
1.56316E-6	-50.386264
1.563205E-6	-50.398147
1.56325E-6	-50.421055
1.563295E-6	-50.436394
1.56334E-6	-50.473044
1.563385E-6	-50.486625
1.56343E-6	-50.519295
1.563475E-6	-50.539901
