Wavelength (nm)	Power (dBm)
1.525E-6	-48.271053
1.525045E-6	-48.16161
1.52509E-6	-48.06041
1.525135E-6	-47.9588
1.52518E-6	-47.846268
1.525225E-6	-47.746907
1.52527E-6	-47.639669
1.525315E-6	-47.539941
1.52536E-6	-47.461776
1.525405E-6	-47.356545
1.52545E-6	-47.258422
1.525495E-6	-47.164726
1.52554E-6	-47.066374
1.525585E-6	-46.981023
1.52563E-6	-46.905828
1.525675E-6	-46.804776
1.52572E-6	-46.718243
1.525765E-6	-46.633402
1.52581E-6	-46.561977
1.525855E-6	-46.493644
1.5259E-6	-46.414941
1.525945E-6	-46.341378
1.52599E-6	-46.250684
1.526035E-6	-46.190655
1.52608E-6	-46.11366
1.526125E-6	-46.074789
1.52617E-6	-45.982549
1.526215E-6	-45.893915
1.52626E-6	-45.828606
1.526305E-6	-45.738142
1.52635E-6	-45.662302
1.526395E-6	-45.609833
1.52644E-6	-45.547072
1.526485E-6	-45.474469
1.52653E-6	-45.412111
1.526575E-6	-45.37602
1.52662E-6	-45.30178
1.526665E-6	-45.276825
1.52671E-6	-45.217222
1.526755E-6	-45.162701
1.5268E-6	-45.107448
1.526845E-6	-45.072396
1.52689E-6	-45.018273
1.526935E-6	-44.964817
1.52698E-6	-44.898573
1.527025E-6	-44.871822
1.52707E-6	-44.800408
1.527115E-6	-44.739193
1.52716E-6	-44.705696
1.527205E-6	-44.629369
1.52725E-6	-44.594203
1.527295E-6	-44.55312
1.52734E-6	-44.535807
1.527385E-6	-44.496493
1.52743E-6	-44.46117
1.527475E-6	-44.452686
1.52752E-6	-44.420119
1.527565E-6	-44.397346
1.52761E-6	-44.387793
1.527655E-6	-44.355707
1.5277E-6	-44.307432
1.527745E-6	-44.273607
1.52779E-6	-44.249277
1.527835E-6	-44.223933
1.52788E-6	-44.217047
1.527925E-6	-44.149907
1.52797E-6	-44.115042
1.528015E-6	-44.101621
1.52806E-6	-44.091582
1.528105E-6	-44.08824
1.52815E-6	-44.072682
1.528195E-6	-44.041732
1.52824E-6	-44.042834
1.528285E-6	-44.070464
1.52833E-6	-44.072682
1.528375E-6	-44.073792
1.52842E-6	-44.034029
1.528465E-6	-44.028535
1.52851E-6	-44.012095
1.528555E-6	-44.002261
1.5286E-6	-44.017568
1.528645E-6	-43.965308
1.52869E-6	-43.927595
1.528735E-6	-43.924378
1.52878E-6	-43.915809
1.528825E-6	-43.909395
1.52887E-6	-43.912601
1.528915E-6	-43.900856
1.52896E-6	-43.91367
1.529005E-6	-43.921163
1.52905E-6	-43.942641
1.529095E-6	-43.973975
1.52914E-6	-43.985919
1.529185E-6	-43.968556
1.52923E-6	-43.94695
1.529275E-6	-43.968556
1.52932E-6	-43.962063
1.529365E-6	-43.964226
1.52941E-6	-43.936186
1.529455E-6	-43.922234
1.5295E-6	-43.892334
1.529545E-6	-43.893398
1.52959E-6	-43.907258
1.529635E-6	-43.926522
1.52968E-6	-43.928668
1.529725E-6	-43.91688
1.52977E-6	-43.920091
1.529815E-6	-43.989183
1.52986E-6	-44.008814
1.529905E-6	-43.996807
1.52995E-6	-44.018664
1.529995E-6	-44.012095
1.53004E-6	-44.008814
1.530085E-6	-44.023048
1.53013E-6	-44.007721
1.530175E-6	-44.014283
1.53022E-6	-43.973975
1.530265E-6	-43.982659
1.53031E-6	-43.965308
1.530355E-6	-43.982659
1.5304E-6	-44.011001
1.530445E-6	-43.998987
1.53049E-6	-43.980486
1.530535E-6	-44.006629
1.53058E-6	-44.051656
1.530625E-6	-44.087127
1.53067E-6	-44.081566
1.530715E-6	-44.08824
1.53076E-6	-44.100504
1.530805E-6	-44.133002
1.53085E-6	-44.120647
1.530895E-6	-44.146521
1.53094E-6	-44.109445
1.530985E-6	-44.087127
1.53103E-6	-44.081566
1.531075E-6	-44.08379
1.53112E-6	-44.115042
1.531165E-6	-44.096041
1.53121E-6	-44.099388
1.531255E-6	-44.100504
1.5313E-6	-44.110564
1.531345E-6	-44.153296
1.53139E-6	-44.211317
1.531435E-6	-44.212462
1.53148E-6	-44.214754
1.531525E-6	-44.22853
1.53157E-6	-44.237739
1.531615E-6	-44.263163
1.53166E-6	-44.258529
1.531705E-6	-44.289903
1.53175E-6	-44.244658
1.531795E-6	-44.222785
1.53184E-6	-44.244658
1.531885E-6	-44.24235
1.53193E-6	-44.253901
1.531975E-6	-44.253901
1.53202E-6	-44.258529
1.532065E-6	-44.282912
1.53211E-6	-44.312118
1.532155E-6	-44.364003
1.5322E-6	-44.414114
1.532245E-6	-44.392567
1.53229E-6	-44.385408
1.532335E-6	-44.439388
1.53238E-6	-44.463597
1.532425E-6	-44.45632
1.53247E-6	-44.462383
1.532515E-6	-44.46724
1.53256E-6	-44.452686
1.532605E-6	-44.451476
1.53265E-6	-44.459957
1.532695E-6	-44.464811
1.53274E-6	-44.46724
1.532785E-6	-44.489161
1.53283E-6	-44.519793
1.532875E-6	-44.544455
1.53292E-6	-44.602968
1.532965E-6	-44.625587
1.53301E-6	-44.634416
1.533055E-6	-44.648325
1.5331E-6	-44.681381
1.533145E-6	-44.709548
1.53319E-6	-44.72499
1.533235E-6	-44.727569
1.53328E-6	-44.723701
1.533325E-6	-44.708264
1.53337E-6	-44.701848
1.533415E-6	-44.73144
1.53346E-6	-44.759936
1.533505E-6	-44.77295
1.53355E-6	-44.776862
1.533595E-6	-44.813545
1.53364E-6	-44.826721
1.533685E-6	-44.871822
1.53373E-6	-44.907975
1.533775E-6	-44.929541
1.53382E-6	-44.962093
1.533865E-6	-44.985299
1.53391E-6	-45.014138
1.533955E-6	-45.030704
1.534E-6	-45.034855
1.534045E-6	-45.05428
1.53409E-6	-45.068209
1.534135E-6	-45.047333
1.53418E-6	-45.062632
1.534225E-6	-45.059846
1.53427E-6	-45.079384
1.534315E-6	-45.089186
1.53436E-6	-45.121549
1.534405E-6	-45.15131
1.53445E-6	-45.16698
1.534495E-6	-45.212892
1.53454E-6	-45.25638
1.534585E-6	-45.275361
1.53463E-6	-45.319482
1.534675E-6	-45.32836
1.53472E-6	-45.318004
1.534765E-6	-45.340226
1.53481E-6	-45.340226
1.534855E-6	-45.355105
1.5349E-6	-45.37153
1.534945E-6	-45.37153
1.53499E-6	-45.364056
1.535035E-6	-45.373026
1.53508E-6	-45.380515
1.535125E-6	-45.419668
1.53517E-6	-45.446982
1.535215E-6	-45.453076
1.53526E-6	-45.488278
1.535305E-6	-45.519123
1.53535E-6	-45.561115
1.535395E-6	-45.575202
1.53544E-6	-45.600361
1.535485E-6	-45.601938
1.53553E-6	-45.617742
1.535575E-6	-45.638374
1.53562E-6	-45.633604
1.535665E-6	-45.62091
1.53571E-6	-45.630427
1.535755E-6	-45.611413
1.5358E-6	-45.609833
1.535845E-6	-45.636783
1.53589E-6	-45.651119
1.535935E-6	-45.68154
1.53598E-6	-45.673513
1.536025E-6	-45.68154
1.53607E-6	-45.733261
1.536115E-6	-45.765903
1.53616E-6	-45.830268
1.536205E-6	-45.807053
1.53625E-6	-45.800443
1.536295E-6	-45.805399
1.53634E-6	-45.828606
1.536385E-6	-45.825283
1.53643E-6	-45.81533
1.536475E-6	-45.810362
1.53652E-6	-45.788899
1.536565E-6	-45.787252
1.53661E-6	-45.790546
1.536655E-6	-45.797141
1.5367E-6	-45.81533
1.536745E-6	-45.820304
1.53679E-6	-45.823623
1.536835E-6	-45.835259
1.53688E-6	-45.865326
1.536925E-6	-45.900669
1.53697E-6	-45.898979
1.537015E-6	-45.900669
1.53706E-6	-45.898979
1.537105E-6	-45.905741
1.53715E-6	-45.912514
1.537195E-6	-45.932895
1.53724E-6	-45.905741
1.537285E-6	-45.865326
1.53733E-6	-45.848596
1.537375E-6	-45.850267
1.53742E-6	-45.855281
1.537465E-6	-45.858626
1.53751E-6	-45.846927
1.537555E-6	-45.858626
1.5376E-6	-45.850267
1.537645E-6	-45.902359
1.53769E-6	-45.938006
1.537735E-6	-45.96022
1.53778E-6	-45.953373
1.537825E-6	-45.931193
1.53787E-6	-45.956795
1.537915E-6	-45.968795
1.53796E-6	-45.955084
1.538005E-6	-45.931193
1.53805E-6	-45.902359
1.538095E-6	-45.86365
1.53814E-6	-45.875395
1.538185E-6	-45.872036
1.53823E-6	-45.887171
1.538275E-6	-45.86365
1.53832E-6	-45.86365
1.538365E-6	-45.865326
1.53841E-6	-45.885487
1.538455E-6	-45.915904
1.5385E-6	-45.943122
1.538545E-6	-45.924392
1.53859E-6	-45.924392
1.538635E-6	-45.931193
1.53868E-6	-45.936302
1.538725E-6	-45.938006
1.53877E-6	-45.914209
1.538815E-6	-45.890541
1.53886E-6	-45.872036
1.538905E-6	-45.86365
1.53895E-6	-45.856953
1.538995E-6	-45.853609
1.53904E-6	-45.841923
1.539085E-6	-45.836924
1.53913E-6	-45.833595
1.539175E-6	-45.872036
1.53922E-6	-45.878756
1.539265E-6	-45.89729
1.53931E-6	-45.900669
1.539355E-6	-45.91082
1.5394E-6	-45.898979
1.539445E-6	-45.915904
1.53949E-6	-45.944829
1.539535E-6	-45.90405
1.53958E-6	-45.880438
1.539625E-6	-45.83859
1.53967E-6	-45.845258
1.539715E-6	-45.830268
1.53976E-6	-45.81533
1.539805E-6	-45.825283
1.53985E-6	-45.805399
1.539895E-6	-45.797141
1.53994E-6	-45.826944
1.539985E-6	-45.853609
1.54003E-6	-45.888856
1.540075E-6	-45.902359
1.54012E-6	-45.890541
1.540165E-6	-45.877075
1.54021E-6	-45.892228
1.540255E-6	-45.883803
1.5403E-6	-45.892228
1.540345E-6	-45.875395
1.54039E-6	-45.828606
1.540435E-6	-45.818645
1.54048E-6	-45.793842
1.540525E-6	-45.800443
1.54057E-6	-45.77082
1.540615E-6	-45.77082
1.54066E-6	-45.767541
1.540705E-6	-45.775743
1.54075E-6	-45.807053
1.540795E-6	-45.820304
1.54084E-6	-45.835259
1.540885E-6	-45.836924
1.54093E-6	-45.851937
1.540975E-6	-45.855281
1.54102E-6	-45.861975
1.541065E-6	-45.858626
1.54111E-6	-45.840256
1.541155E-6	-45.83859
1.5412E-6	-45.810362
1.541245E-6	-45.777385
1.54129E-6	-45.762628
1.541335E-6	-45.73001
1.54138E-6	-45.723516
1.541425E-6	-45.73977
1.54147E-6	-45.73977
1.541515E-6	-45.744658
1.54156E-6	-45.77082
1.541605E-6	-45.77082
1.54165E-6	-45.802094
1.541695E-6	-45.808707
1.54174E-6	-45.81533
1.541785E-6	-45.833595
1.54183E-6	-45.830268
1.541875E-6	-45.805399
1.54192E-6	-45.793842
1.541965E-6	-45.779028
1.54201E-6	-45.747919
1.542055E-6	-45.725139
1.5421E-6	-45.70894
1.542145E-6	-45.715412
1.54219E-6	-45.721894
1.542235E-6	-45.705707
1.54228E-6	-45.700863
1.542325E-6	-45.723516
1.54237E-6	-45.746288
1.542415E-6	-45.764265
1.54246E-6	-45.765903
1.542505E-6	-45.792194
1.54255E-6	-45.798792
1.542595E-6	-45.783961
1.54264E-6	-45.782316
1.542685E-6	-45.774102
1.54273E-6	-45.774102
1.542775E-6	-45.752817
1.54282E-6	-45.715412
1.542865E-6	-45.696024
1.54291E-6	-45.675117
1.542955E-6	-45.678327
1.543E-6	-45.691191
1.543045E-6	-45.700863
1.54309E-6	-45.684754
1.543135E-6	-45.686362
1.54318E-6	-45.718652
1.543225E-6	-45.764265
1.54327E-6	-45.792194
1.543315E-6	-45.798792
1.54336E-6	-45.782316
1.543405E-6	-45.780672
1.54345E-6	-45.775743
1.543495E-6	-45.782316
1.54354E-6	-45.777385
1.543585E-6	-45.747919
1.54363E-6	-45.712175
1.543675E-6	-45.694412
1.54372E-6	-45.692801
1.543765E-6	-45.700863
1.54381E-6	-45.70894
1.543855E-6	-45.700863
1.5439E-6	-45.70894
1.543945E-6	-45.723516
1.54399E-6	-45.765903
1.544035E-6	-45.813673
1.54408E-6	-45.831931
1.544125E-6	-45.816987
1.54417E-6	-45.821963
1.544215E-6	-45.805399
1.54426E-6	-45.833595
1.544305E-6	-45.84359
1.54435E-6	-45.800443
1.544395E-6	-45.73977
1.54444E-6	-45.720273
1.544485E-6	-45.712175
1.54453E-6	-45.743028
1.544575E-6	-45.736514
1.54462E-6	-45.738142
1.544665E-6	-45.715412
1.54471E-6	-45.734887
1.544755E-6	-45.772461
1.5448E-6	-45.851937
1.544845E-6	-45.865326
1.54489E-6	-45.8603
1.544935E-6	-45.861975
1.54498E-6	-45.848596
1.545025E-6	-45.833595
1.54507E-6	-45.757719
1.545115E-6	-43.655227
1.54516E-6	-35.326879
1.545205E-6	-29.842212
1.54525E-6	-27.564659
1.545295E-6	-26.9897
1.54534E-6	-26.903698
1.545385E-6	-26.897316
1.54543E-6	-26.888822
1.545475E-6	-27.2262
1.54552E-6	-29.086848
1.545565E-6	-33.677452
1.54561E-6	-41.083511
1.545655E-6	-45.21145
1.5457E-6	-45.76918
1.545745E-6	-45.865326
1.54579E-6	-45.890541
1.545835E-6	-45.914209
1.54588E-6	-45.922693
1.545925E-6	-45.905741
1.54597E-6	-45.861975
1.546015E-6	-45.840256
1.54606E-6	-45.825283
1.546105E-6	-45.830268
1.54615E-6	-45.836924
1.546195E-6	-45.825283
1.54624E-6	-45.826944
1.546285E-6	-45.836924
1.54633E-6	-45.861975
1.546375E-6	-45.907433
1.54642E-6	-45.949953
1.546465E-6	-45.949953
1.54651E-6	-45.938006
1.546555E-6	-45.955084
1.5466E-6	-45.970512
1.546645E-6	-45.991168
1.54669E-6	-45.967079
1.546735E-6	-45.943122
1.54678E-6	-45.898979
1.546825E-6	-45.878756
1.54687E-6	-45.880438
1.546915E-6	-45.877075
1.54696E-6	-45.885487
1.547005E-6	-45.875395
1.54705E-6	-45.877075
1.547095E-6	-45.895602
1.54714E-6	-45.929492
1.547185E-6	-45.970512
1.54723E-6	-45.991168
1.547275E-6	-46.001533
1.54732E-6	-46.003263
1.547365E-6	-46.006725
1.54741E-6	-46.006725
1.547455E-6	-46.010189
1.5475E-6	-45.998075
1.547545E-6	-45.970512
1.54759E-6	-45.948245
1.547635E-6	-45.9176
1.54768E-6	-45.912514
1.547725E-6	-45.9176
1.54777E-6	-45.91082
1.547815E-6	-45.909126
1.54786E-6	-45.926091
1.547905E-6	-45.953373
1.54795E-6	-45.985995
1.547995E-6	-46.017127
1.54804E-6	-46.031036
1.548085E-6	-46.048484
1.54813E-6	-46.067759
1.548175E-6	-46.058987
1.54822E-6	-46.053732
1.548265E-6	-46.039751
1.54831E-6	-46.046736
1.548355E-6	-46.001533
1.5484E-6	-45.984272
1.548445E-6	-45.965363
1.54849E-6	-45.968795
1.548535E-6	-45.944829
1.54858E-6	-45.946536
1.548625E-6	-45.963648
1.54867E-6	-45.965363
1.548715E-6	-45.984272
1.54876E-6	-46.017127
1.548805E-6	-46.031036
1.54885E-6	-46.069515
1.548895E-6	-46.078309
1.54894E-6	-46.085356
1.548985E-6	-46.095948
1.54903E-6	-46.078309
1.549075E-6	-46.062494
1.54912E-6	-46.053732
1.549165E-6	-46.041496
1.54921E-6	-45.998075
1.549255E-6	-45.967079
1.5493E-6	-45.965363
1.549345E-6	-45.956795
1.54939E-6	-45.961934
1.549435E-6	-45.985995
1.54948E-6	-45.985995
1.549525E-6	-45.996347
1.54957E-6	-46.024076
1.549615E-6	-46.064248
1.54966E-6	-46.078309
1.549705E-6	-46.099485
1.54975E-6	-46.095948
1.549795E-6	-46.078309
1.54984E-6	-46.0206
1.549885E-6	-45.738142
1.54993E-6	-40.195875
1.549975E-6	-31.849538
1.55002E-6	-28.167302
1.550065E-6	-26.827727
1.55011E-6	-26.613443
1.550155E-6	-26.577748
1.5502E-6	-26.589614
1.550245E-6	-26.643415
1.55029E-6	-27.328283
1.550335E-6	-30.018279
1.55038E-6	-36.223296
1.550425E-6	-43.645163
1.55047E-6	-45.715412
1.550515E-6	-46.018863
1.55056E-6	-46.064248
1.550605E-6	-46.062494
1.55065E-6	-46.062494
1.550695E-6	-46.07303
1.55074E-6	-46.053732
1.550785E-6	-46.004993
1.55083E-6	-45.970512
1.550875E-6	-45.953373
1.55092E-6	-45.956795
1.550965E-6	-45.963648
1.55101E-6	-45.956795
1.551055E-6	-45.949953
1.5511E-6	-45.949953
1.551145E-6	-45.972229
1.55119E-6	-46.017127
1.551235E-6	-46.06074
1.55128E-6	-46.069515
1.551325E-6	-46.07303
1.55137E-6	-46.064248
1.551415E-6	-46.053732
1.55146E-6	-46.062494
1.551505E-6	-46.06074
1.55155E-6	-46.011923
1.551595E-6	-45.972229
1.55164E-6	-45.936302
1.551685E-6	-45.926091
1.55173E-6	-45.936302
1.551775E-6	-45.958508
1.55182E-6	-45.932895
1.551865E-6	-45.924392
1.55191E-6	-45.929492
1.551955E-6	-45.963648
1.552E-6	-46.024076
1.552045E-6	-46.06074
1.55209E-6	-46.057235
1.552135E-6	-46.043242
1.55218E-6	-46.03452
1.552225E-6	-46.058987
1.55227E-6	-46.058987
1.552315E-6	-46.041496
1.55236E-6	-45.992894
1.552405E-6	-45.941416
1.55245E-6	-45.905741
1.552495E-6	-45.898979
1.55254E-6	-45.9176
1.552585E-6	-45.924392
1.55263E-6	-45.914209
1.552675E-6	-45.895602
1.55272E-6	-45.920995
1.552765E-6	-45.967079
1.55281E-6	-46.013657
1.552855E-6	-46.039751
1.5529E-6	-46.03452
1.552945E-6	-46.027554
1.55299E-6	-46.029295
1.553035E-6	-46.050233
1.55308E-6	-46.03452
1.553125E-6	-46.013657
1.55317E-6	-45.963648
1.553215E-6	-45.914209
1.55326E-6	-45.905741
1.553305E-6	-45.90405
1.55335E-6	-45.900669
1.553395E-6	-45.890541
1.55344E-6	-45.887171
1.553485E-6	-45.878756
1.55353E-6	-45.920995
1.553575E-6	-45.967079
1.55362E-6	-45.999804
1.553665E-6	-46.013657
1.55371E-6	-46.011923
1.553755E-6	-46.010189
1.5538E-6	-46.022337
1.553845E-6	-46.025815
1.55389E-6	-46.022337
1.553935E-6	-46.003263
1.55398E-6	-45.953373
1.554025E-6	-45.900669
1.55407E-6	-45.888856
1.554115E-6	-45.877075
1.55416E-6	-45.877075
1.554205E-6	-45.867002
1.55425E-6	-45.861975
1.554295E-6	-45.867002
1.55434E-6	-45.90405
1.554385E-6	-45.949953
1.55443E-6	-46.003263
1.554475E-6	-46.003263
1.55452E-6	-45.992894
1.554565E-6	-46.008457
1.55461E-6	-46.013657
1.554655E-6	-46.024076
1.5547E-6	-46.010189
1.554745E-6	-45.980827
1.55479E-6	-45.929492
1.554835E-6	-45.885487
1.55488E-6	-45.868679
1.554925E-6	-45.865326
1.55497E-6	-45.851937
1.555015E-6	-45.850267
1.55506E-6	-45.84359
1.555105E-6	-45.861975
1.55515E-6	-45.888856
1.555195E-6	-45.931193
1.55524E-6	-45.975667
1.555285E-6	-45.982549
1.55533E-6	-45.989443
1.555375E-6	-46.003263
1.55542E-6	-46.006725
1.555465E-6	-45.989443
1.55551E-6	-45.984272
1.555555E-6	-45.958508
1.5556E-6	-45.915904
1.555645E-6	-45.868679
1.55569E-6	-45.861975
1.555735E-6	-45.850267
1.55578E-6	-45.846927
1.555825E-6	-45.840256
1.55587E-6	-45.836924
1.555915E-6	-45.853609
1.55596E-6	-45.888856
1.556005E-6	-45.927791
1.55605E-6	-45.972229
1.556095E-6	-45.99462
1.55614E-6	-45.999804
1.556185E-6	-46.008457
1.55623E-6	-46.001533
1.556275E-6	-45.987718
1.55632E-6	-45.984272
1.556365E-6	-45.967079
1.55641E-6	-45.919297
1.556455E-6	-45.883803
1.5565E-6	-45.855281
1.556545E-6	-45.83859
1.55659E-6	-45.846927
1.556635E-6	-45.846927
1.55668E-6	-45.856953
1.556725E-6	-45.865326
1.55677E-6	-45.875395
1.556815E-6	-45.931193
1.55686E-6	-45.979106
1.556905E-6	-46.004993
1.55695E-6	-46.013657
1.556995E-6	-46.024076
1.55704E-6	-46.008457
1.557085E-6	-46.004993
1.55713E-6	-46.001533
1.557175E-6	-45.989443
1.55722E-6	-45.943122
1.557265E-6	-45.900669
1.55731E-6	-45.867002
1.557355E-6	-45.868679
1.5574E-6	-45.867002
1.557445E-6	-45.890541
1.55749E-6	-45.880438
1.557535E-6	-45.895602
1.55758E-6	-45.915904
1.557625E-6	-45.961934
1.55767E-6	-46.027554
1.557715E-6	-46.050233
1.55776E-6	-46.051982
1.557805E-6	-46.046736
1.55785E-6	-46.048484
1.557895E-6	-46.036263
1.55794E-6	-46.048484
1.557985E-6	-46.025815
1.55803E-6	-45.985995
1.558075E-6	-45.924392
1.55812E-6	-45.90405
1.558165E-6	-45.907433
1.55821E-6	-45.926091
1.558255E-6	-45.938006
1.5583E-6	-45.932895
1.558345E-6	-45.939711
1.55839E-6	-45.963648
1.558435E-6	-46.029295
1.55848E-6	-46.08712
1.558525E-6	-46.11366
1.55857E-6	-46.117211
1.558615E-6	-46.110112
1.55866E-6	-46.11366
1.558705E-6	-46.106567
1.55875E-6	-46.129663
1.558795E-6	-46.110112
1.55884E-6	-46.046736
1.558885E-6	-46.006725
1.55893E-6	-45.991168
1.558975E-6	-45.991168
1.55902E-6	-46.017127
1.559065E-6	-46.029295
1.55911E-6	-46.024076
1.559155E-6	-46.025815
1.5592E-6	-46.055483
1.559245E-6	-46.131445
1.55929E-6	-46.188849
1.559335E-6	-46.199698
1.55938E-6	-46.20332
1.559425E-6	-46.196078
1.55947E-6	-46.210573
1.559515E-6	-46.225116
1.55956E-6	-46.239708
1.559605E-6	-46.216021
1.55965E-6	-46.151092
1.559695E-6	-46.11366
1.55974E-6	-46.11366
1.559785E-6	-46.124322
1.55983E-6	-46.124322
1.559875E-6	-46.131445
1.55992E-6	-46.129663
1.559965E-6	-46.140364
1.56001E-6	-46.176227
1.560055E-6	-46.245193
1.5601E-6	-46.293019
1.560145E-6	-46.313413
1.56019E-6	-46.313413
1.560235E-6	-46.326441
1.56028E-6	-46.324577
1.560325E-6	-46.348866
1.56037E-6	-46.35074
1.560415E-6	-46.318991
1.56046E-6	-46.267201
1.560505E-6	-46.223296
1.56055E-6	-46.230582
1.560595E-6	-46.241536
1.56064E-6	-46.245193
1.560685E-6	-46.252517
1.56073E-6	-46.248853
1.560775E-6	-46.263525
1.56082E-6	-46.294869
1.560865E-6	-46.360122
1.56091E-6	-46.424463
1.560955E-6	-46.428277
1.561E-6	-46.420652
1.561045E-6	-46.451236
1.56109E-6	-46.460838
1.561135E-6	-46.460838
1.56118E-6	-46.462761
1.561225E-6	-46.441655
1.56127E-6	-46.394066
1.561315E-6	-46.367642
1.56136E-6	-46.373291
1.561405E-6	-46.382722
1.56145E-6	-46.38461
1.561495E-6	-46.3865
1.56154E-6	-46.38461
1.561585E-6	-46.40544
1.56163E-6	-46.443569
1.561675E-6	-46.493644
1.56172E-6	-46.538427
1.561765E-6	-46.542343
1.56181E-6	-46.558043
1.561855E-6	-46.577748
1.5619E-6	-46.585655
1.561945E-6	-46.585655
1.56199E-6	-46.581699
1.562035E-6	-46.575773
1.56208E-6	-46.544302
1.562125E-6	-46.501399
1.56217E-6	-46.501399
1.562215E-6	-46.49752
1.56226E-6	-46.50334
1.562305E-6	-46.513058
1.56235E-6	-46.511113
1.562395E-6	-46.528652
1.56244E-6	-46.560009
1.562485E-6	-46.611453
1.56253E-6	-46.655462
1.562575E-6	-46.663512
1.56262E-6	-46.673596
1.562665E-6	-46.695862
1.56271E-6	-46.706021
1.562755E-6	-46.703988
1.5628E-6	-46.712128
1.562845E-6	-46.687752
1.56289E-6	-46.667543
1.562935E-6	-46.645421
1.56298E-6	-46.625407
1.563025E-6	-46.631402
1.56307E-6	-46.637404
1.563115E-6	-46.627405
1.56316E-6	-46.639407
1.563205E-6	-46.675615
1.56325E-6	-46.689778
1.563295E-6	-46.74074
1.56334E-6	-46.771607
1.563385E-6	-46.792308
1.56343E-6	-46.806857
1.563475E-6	-46.827727
