Wavelength (nm)	Power (dBm)
1.525E-6	-47.966951
1.525045E-6	-47.878124
1.52509E-6	-47.780644
1.525135E-6	-47.68021
1.52518E-6	-47.577071
1.525225E-6	-47.476325
1.52527E-6	-47.394516
1.525315E-6	-47.304871
1.52536E-6	-47.212464
1.525405E-6	-47.130946
1.52545E-6	-47.026773
1.525495E-6	-46.937895
1.52554E-6	-46.861328
1.525585E-6	-46.781945
1.52563E-6	-46.697892
1.525675E-6	-46.615435
1.52572E-6	-46.5267
1.525765E-6	-46.458916
1.52581E-6	-46.375175
1.525855E-6	-46.311555
1.5259E-6	-46.236056
1.525945E-6	-46.165437
1.52599E-6	-46.094181
1.526035E-6	-46.031036
1.52608E-6	-45.96022
1.526125E-6	-45.909126
1.52617E-6	-45.825283
1.526215E-6	-45.764265
1.52626E-6	-45.696024
1.526305E-6	-45.628839
1.52635E-6	-45.56737
1.526395E-6	-45.503673
1.52644E-6	-45.428754
1.526485E-6	-45.37602
1.52653E-6	-45.319482
1.526575E-6	-45.282683
1.52662E-6	-45.230235
1.526665E-6	-45.176982
1.52671E-6	-45.124374
1.526755E-6	-45.090588
1.5268E-6	-45.037625
1.526845E-6	-45.001755
1.52689E-6	-44.958011
1.526935E-6	-44.882503
1.52698E-6	-44.85054
1.527025E-6	-44.805658
1.52707E-6	-44.762535
1.527115E-6	-44.699284
1.52716E-6	-44.645793
1.527205E-6	-44.607984
1.52725E-6	-44.568014
1.527295E-6	-44.535807
1.52734E-6	-44.513649
1.527385E-6	-44.46724
1.52743E-6	-44.427335
1.527475E-6	-44.405722
1.52752E-6	-44.397346
1.527565E-6	-44.378261
1.52761E-6	-44.355707
1.527655E-6	-44.317983
1.5277E-6	-44.277094
1.527745E-6	-44.246967
1.52779E-6	-44.238891
1.527835E-6	-44.207882
1.52788E-6	-44.152166
1.527925E-6	-44.113922
1.52797E-6	-44.092696
1.528015E-6	-44.073792
1.52806E-6	-44.078232
1.528105E-6	-44.038429
1.52815E-6	-44.021952
1.528195E-6	-43.994627
1.52824E-6	-44.000078
1.528285E-6	-44.036229
1.52833E-6	-43.998987
1.528375E-6	-43.995717
1.52842E-6	-43.963145
1.528465E-6	-43.950184
1.52851E-6	-43.937261
1.528555E-6	-43.921163
1.5286E-6	-43.910463
1.528645E-6	-43.880644
1.52869E-6	-43.847867
1.528735E-6	-43.824755
1.52878E-6	-43.827899
1.528825E-6	-43.823707
1.52887E-6	-43.808023
1.528915E-6	-43.808023
1.52896E-6	-43.802807
1.529005E-6	-43.806979
1.52905E-6	-43.823707
1.529095E-6	-43.836295
1.52914E-6	-43.806979
1.529185E-6	-43.800723
1.52923E-6	-43.788237
1.529275E-6	-43.795516
1.52932E-6	-43.790316
1.529365E-6	-43.77786
1.52941E-6	-43.757179
1.529455E-6	-43.729415
1.5295E-6	-43.719177
1.529545E-6	-43.725317
1.52959E-6	-43.729415
1.529635E-6	-43.725317
1.52968E-6	-43.702847
1.529725E-6	-43.722246
1.52977E-6	-43.711004
1.529815E-6	-43.749964
1.52986E-6	-43.752024
1.529905E-6	-43.749964
1.52995E-6	-43.745846
1.529995E-6	-43.750994
1.53004E-6	-43.761307
1.530085E-6	-43.758211
1.53013E-6	-43.760275
1.530175E-6	-43.739678
1.53022E-6	-43.729415
1.530265E-6	-43.705904
1.53031E-6	-43.708963
1.530355E-6	-43.717133
1.5304E-6	-43.718155
1.530445E-6	-43.708963
1.53049E-6	-43.725317
1.530535E-6	-43.718155
1.53058E-6	-43.771645
1.530625E-6	-43.782008
1.53067E-6	-43.789276
1.530715E-6	-43.789276
1.53076E-6	-43.80385
1.530805E-6	-43.805936
1.53085E-6	-43.823707
1.530895E-6	-43.82266
1.53094E-6	-43.817427
1.530985E-6	-43.792395
1.53103E-6	-43.774751
1.531075E-6	-43.800723
1.53112E-6	-43.801765
1.531165E-6	-43.813245
1.53121E-6	-43.816381
1.531255E-6	-43.821613
1.5313E-6	-43.826851
1.531345E-6	-43.872161
1.53139E-6	-43.900856
1.531435E-6	-43.924378
1.53148E-6	-43.91474
1.531525E-6	-43.923306
1.53157E-6	-43.951262
1.531615E-6	-43.965308
1.53166E-6	-43.968556
1.531705E-6	-43.964226
1.53175E-6	-43.981572
1.531795E-6	-43.981572
1.53184E-6	-43.981572
1.531885E-6	-43.985919
1.53193E-6	-43.992449
1.531975E-6	-44.001169
1.53202E-6	-44.028535
1.532065E-6	-44.061603
1.53211E-6	-44.090468
1.532155E-6	-44.120647
1.5322E-6	-44.154426
1.532245E-6	-44.164612
1.53229E-6	-44.17255
1.532335E-6	-44.209027
1.53238E-6	-44.217047
1.532425E-6	-44.236586
1.53247E-6	-44.235435
1.532515E-6	-44.24235
1.53256E-6	-44.252744
1.532605E-6	-44.273607
1.53265E-6	-44.284076
1.532695E-6	-44.306261
1.53274E-6	-44.320331
1.532785E-6	-44.350973
1.53283E-6	-44.400934
1.532875E-6	-44.414114
1.53292E-6	-44.450265
1.532965E-6	-44.491604
1.53301E-6	-44.505063
1.533055E-6	-44.564286
1.5331E-6	-44.575481
1.533145E-6	-44.596705
1.53319E-6	-44.628108
1.533235E-6	-44.639468
1.53328E-6	-44.678829
1.533325E-6	-44.678829
1.53337E-6	-44.692882
1.533415E-6	-44.698003
1.53346E-6	-44.715976
1.533505E-6	-44.74696
1.53355E-6	-44.786004
1.533595E-6	-44.828041
1.53364E-6	-44.861168
1.533685E-6	-44.89455
1.53373E-6	-44.930893
1.533775E-6	-44.979828
1.53382E-6	-45.026556
1.533865E-6	-45.059846
1.53391E-6	-45.084982
1.533955E-6	-45.108856
1.534E-6	-45.135695
1.534045E-6	-45.161275
1.53409E-6	-45.178413
1.534135E-6	-45.197055
1.53418E-6	-45.215778
1.534225E-6	-45.237482
1.53427E-6	-45.26659
1.534315E-6	-45.306199
1.53436E-6	-45.338741
1.534405E-6	-45.367044
1.53445E-6	-45.406075
1.534495E-6	-45.457651
1.53454E-6	-45.50059
1.534585E-6	-45.551748
1.53463E-6	-45.583049
1.534675E-6	-45.625666
1.53472E-6	-45.657505
1.534765E-6	-45.660702
1.53481E-6	-45.710557
1.534855E-6	-45.733261
1.5349E-6	-45.764265
1.534945E-6	-45.757719
1.53499E-6	-45.777385
1.535035E-6	-45.812017
1.53508E-6	-45.846927
1.535125E-6	-45.895602
1.53517E-6	-45.927791
1.535215E-6	-45.968795
1.53526E-6	-45.999804
1.535305E-6	-46.046736
1.53535E-6	-46.094181
1.535395E-6	-46.14215
1.53544E-6	-46.187044
1.535485E-6	-46.192462
1.53553E-6	-46.206945
1.535575E-6	-46.252517
1.53562E-6	-46.293019
1.535665E-6	-46.294869
1.53571E-6	-46.289321
1.535755E-6	-46.309698
1.5358E-6	-46.348866
1.535845E-6	-46.367642
1.53589E-6	-46.409238
1.535935E-6	-46.424463
1.53598E-6	-46.451236
1.536025E-6	-46.487837
1.53607E-6	-46.534514
1.536115E-6	-46.601512
1.53616E-6	-46.631402
1.536205E-6	-46.645421
1.53625E-6	-46.673596
1.536295E-6	-46.691805
1.53634E-6	-46.724367
1.536385E-6	-46.744843
1.53643E-6	-46.746896
1.536475E-6	-46.7305
1.53652E-6	-46.742791
1.536565E-6	-46.767479
1.53661E-6	-46.794383
1.536655E-6	-46.834007
1.5367E-6	-46.836102
1.536745E-6	-46.846595
1.53679E-6	-46.863437
1.536835E-6	-46.916491
1.53688E-6	-46.974526
1.536925E-6	-46.985359
1.53697E-6	-47.015836
1.537015E-6	-47.026773
1.53706E-6	-47.024583
1.537105E-6	-47.055338
1.53715E-6	-47.084092
1.537195E-6	-47.119745
1.53724E-6	-47.07301
1.537285E-6	-47.048729
1.53733E-6	-47.077439
1.537375E-6	-47.077439
1.53742E-6	-47.10634
1.537465E-6	-47.088532
1.53751E-6	-47.124222
1.537555E-6	-47.128704
1.5376E-6	-47.14893
1.537645E-6	-47.196493
1.53769E-6	-47.228494
1.537735E-6	-47.23998
1.53778E-6	-47.253804
1.537825E-6	-47.249191
1.53787E-6	-47.281584
1.537915E-6	-47.276942
1.53796E-6	-47.302536
1.538005E-6	-47.260732
1.53805E-6	-47.244583
1.538095E-6	-47.230789
1.53814E-6	-47.23768
1.538185E-6	-47.251497
1.53823E-6	-47.249191
1.538275E-6	-47.251497
1.53832E-6	-47.249191
1.538365E-6	-47.272304
1.53841E-6	-47.293212
1.538455E-6	-47.337683
1.5385E-6	-47.358908
1.538545E-6	-47.356545
1.53859E-6	-47.344747
1.538635E-6	-47.366007
1.53868E-6	-47.377863
1.538725E-6	-47.361273
1.53877E-6	-47.349462
1.538815E-6	-47.330631
1.53886E-6	-47.297871
1.538905E-6	-47.316561
1.53895E-6	-47.293212
1.538995E-6	-47.293212
1.53904E-6	-47.281584
1.539085E-6	-47.286231
1.53913E-6	-47.302536
1.539175E-6	-47.302536
1.53922E-6	-47.321246
1.539265E-6	-47.351822
1.53931E-6	-47.370745
1.539355E-6	-47.351822
1.5394E-6	-47.370745
1.539445E-6	-47.377863
1.53949E-6	-47.358908
1.539535E-6	-47.347104
1.53958E-6	-47.318903
1.539625E-6	-47.293212
1.53967E-6	-47.281584
1.539715E-6	-47.272304
1.53976E-6	-47.256112
1.539805E-6	-47.246886
1.53985E-6	-47.23998
1.539895E-6	-47.233085
1.53994E-6	-47.267672
1.539985E-6	-47.267672
1.54003E-6	-47.290884
1.540075E-6	-47.302536
1.54012E-6	-47.293212
1.540165E-6	-47.311881
1.54021E-6	-47.321246
1.540255E-6	-47.295541
1.5403E-6	-47.279262
1.540345E-6	-47.269987
1.54039E-6	-47.242281
1.540435E-6	-47.223908
1.54048E-6	-47.194216
1.540525E-6	-47.185121
1.54057E-6	-47.176045
1.540615E-6	-47.166988
1.54066E-6	-47.160207
1.540705E-6	-47.157949
1.54075E-6	-47.171514
1.540795E-6	-47.194216
1.54084E-6	-47.187393
1.540885E-6	-47.223908
1.54093E-6	-47.223908
1.540975E-6	-47.23768
1.54102E-6	-47.205612
1.541065E-6	-47.203331
1.54111E-6	-47.180581
1.541155E-6	-47.178312
1.5412E-6	-47.130946
1.541245E-6	-47.115272
1.54129E-6	-47.092978
1.541335E-6	-47.068585
1.54138E-6	-47.068585
1.541425E-6	-47.075224
1.54147E-6	-47.07301
1.541515E-6	-47.053134
1.54156E-6	-47.081873
1.541605E-6	-47.088532
1.54165E-6	-47.124222
1.541695E-6	-47.124222
1.54174E-6	-47.130946
1.541785E-6	-47.124222
1.54183E-6	-47.10634
1.541875E-6	-47.090754
1.54192E-6	-47.092978
1.541965E-6	-47.075224
1.54201E-6	-47.031155
1.542055E-6	-46.9897
1.5421E-6	-46.981023
1.542145E-6	-46.976691
1.54219E-6	-46.970201
1.542235E-6	-46.985359
1.54228E-6	-46.96372
1.542325E-6	-46.987529
1.54237E-6	-47.011469
1.542415E-6	-47.022395
1.54246E-6	-47.048729
1.542505E-6	-47.055338
1.54255E-6	-47.048729
1.542595E-6	-47.042131
1.54264E-6	-47.026773
1.542685E-6	-47.022395
1.54273E-6	-47.026773
1.542775E-6	-46.991872
1.54282E-6	-46.944337
1.542865E-6	-46.92504
1.54291E-6	-46.905828
1.542955E-6	-46.91009
1.543E-6	-46.922901
1.543045E-6	-46.916491
1.54309E-6	-46.912222
1.543135E-6	-46.916491
1.54318E-6	-46.940041
1.543225E-6	-46.985359
1.54327E-6	-47.009287
1.543315E-6	-47.013652
1.54336E-6	-46.985359
1.543405E-6	-46.991872
1.54345E-6	-46.985359
1.543495E-6	-46.996219
1.54354E-6	-46.974526
1.543585E-6	-46.93575
1.54363E-6	-46.899443
1.543675E-6	-46.882461
1.54372E-6	-46.880343
1.543765E-6	-46.90157
1.54381E-6	-46.893067
1.543855E-6	-46.8867
1.5439E-6	-46.880343
1.543945E-6	-46.920763
1.54399E-6	-46.961562
1.544035E-6	-47.007107
1.54408E-6	-46.991872
1.544125E-6	-46.985359
1.54417E-6	-46.987529
1.544215E-6	-46.996219
1.54426E-6	-47.018021
1.544305E-6	-46.996219
1.54435E-6	-46.987529
1.544395E-6	-46.92718
1.54444E-6	-46.897316
1.544485E-6	-46.903698
1.54453E-6	-46.916491
1.544575E-6	-46.920763
1.54462E-6	-46.905828
1.544665E-6	-46.905828
1.54471E-6	-46.90157
1.544755E-6	-46.944337
1.5448E-6	-46.996219
1.544845E-6	-47.022395
1.54489E-6	-47.009287
1.544935E-6	-47.020208
1.54498E-6	-47.009287
1.545025E-6	-47.007107
1.54507E-6	-46.880343
1.545115E-6	-44.434563
1.54516E-6	-35.970512
1.545205E-6	-30.881502
1.54525E-6	-28.741935
1.545295E-6	-28.195874
1.54534E-6	-28.130437
1.545385E-6	-28.082696
1.54543E-6	-28.10229
1.545475E-6	-28.477117
1.54552E-6	-30.397671
1.545565E-6	-34.993519
1.54561E-6	-42.545348
1.545655E-6	-46.414941
1.5457E-6	-46.942188
1.545745E-6	-47.046529
1.54579E-6	-47.064165
1.545835E-6	-47.075224
1.54588E-6	-47.07301
1.545925E-6	-47.064165
1.54597E-6	-47.020208
1.546015E-6	-46.991872
1.54606E-6	-47.002748
1.546105E-6	-47.007107
1.54615E-6	-47.000571
1.546195E-6	-46.991872
1.54624E-6	-46.991872
1.546285E-6	-47.009287
1.54633E-6	-47.035542
1.546375E-6	-47.092978
1.54642E-6	-47.10411
1.546465E-6	-47.121983
1.54651E-6	-47.121983
1.546555E-6	-47.137681
1.5466E-6	-47.137681
1.546645E-6	-47.144427
1.54669E-6	-47.139929
1.546735E-6	-47.119745
1.54678E-6	-47.084092
1.546825E-6	-47.075224
1.54687E-6	-47.055338
1.546915E-6	-47.057543
1.54696E-6	-47.057543
1.547005E-6	-47.053134
1.54705E-6	-47.059749
1.547095E-6	-47.086311
1.54714E-6	-47.115272
1.547185E-6	-47.155693
1.54723E-6	-47.171514
1.547275E-6	-47.185121
1.54732E-6	-47.194216
1.547365E-6	-47.223908
1.54741E-6	-47.21475
1.547455E-6	-47.210179
1.5475E-6	-47.198771
1.547545E-6	-47.166988
1.54759E-6	-47.139929
1.547635E-6	-47.119745
1.54768E-6	-47.113037
1.547725E-6	-47.110804
1.54777E-6	-47.119745
1.547815E-6	-47.126462
1.54786E-6	-47.135435
1.547905E-6	-47.153437
1.54795E-6	-47.185121
1.547995E-6	-47.223908
1.54804E-6	-47.230789
1.548085E-6	-47.267672
1.54813E-6	-47.274622
1.548175E-6	-47.279262
1.54822E-6	-47.272304
1.548265E-6	-47.265357
1.54831E-6	-47.260732
1.548355E-6	-47.233085
1.5484E-6	-47.196493
1.548445E-6	-47.180581
1.54849E-6	-47.173779
1.548535E-6	-47.16925
1.54858E-6	-47.180581
1.548625E-6	-47.20105
1.54867E-6	-47.198771
1.548715E-6	-47.210179
1.54876E-6	-47.235382
1.548805E-6	-47.272304
1.54885E-6	-47.31422
1.548895E-6	-47.309543
1.54894E-6	-47.316561
1.548985E-6	-47.318903
1.54903E-6	-47.309543
1.549075E-6	-47.302536
1.54912E-6	-47.295541
1.549165E-6	-47.267672
1.54921E-6	-47.235382
1.549255E-6	-47.210179
1.5493E-6	-47.210179
1.549345E-6	-47.207895
1.54939E-6	-47.223908
1.549435E-6	-47.2262
1.54948E-6	-47.2262
1.549525E-6	-47.253804
1.54957E-6	-47.283907
1.549615E-6	-47.325936
1.54966E-6	-47.349462
1.549705E-6	-47.354183
1.54975E-6	-47.347104
1.549795E-6	-47.340036
1.54984E-6	-47.286231
1.549885E-6	-46.950788
1.54993E-6	-41.13002
1.549975E-6	-32.780246
1.55002E-6	-29.19013
1.550065E-6	-27.994231
1.55011E-6	-27.791078
1.550155E-6	-27.75726
1.5502E-6	-27.74174
1.550245E-6	-27.788467
1.55029E-6	-28.566729
1.550335E-6	-31.304749
1.55038E-6	-37.754669
1.550425E-6	-45.030704
1.55047E-6	-47.018021
1.550515E-6	-47.290884
1.55056E-6	-47.33298
1.550605E-6	-47.340036
1.55065E-6	-47.354183
1.550695E-6	-47.356545
1.55074E-6	-47.337683
1.550785E-6	-47.286231
1.55083E-6	-47.251497
1.550875E-6	-47.242281
1.55092E-6	-47.244583
1.550965E-6	-47.23998
1.55101E-6	-47.23998
1.551055E-6	-47.23998
1.5511E-6	-47.235382
1.551145E-6	-47.276942
1.55119E-6	-47.328283
1.551235E-6	-47.351822
1.55128E-6	-47.363639
1.551325E-6	-47.354183
1.55137E-6	-47.342391
1.551415E-6	-47.358908
1.55146E-6	-47.358908
1.551505E-6	-47.351822
1.55155E-6	-47.321246
1.551595E-6	-47.258422
1.55164E-6	-47.23998
1.551685E-6	-47.228494
1.55173E-6	-47.235382
1.551775E-6	-47.242281
1.55182E-6	-47.235382
1.551865E-6	-47.228494
1.55191E-6	-47.230789
1.551955E-6	-47.286231
1.552E-6	-47.335331
1.552045E-6	-47.351822
1.55209E-6	-47.363639
1.552135E-6	-47.344747
1.55218E-6	-47.340036
1.552225E-6	-47.358908
1.55227E-6	-47.370745
1.552315E-6	-47.342391
1.55236E-6	-47.295541
1.552405E-6	-47.233085
1.55245E-6	-47.2262
1.552495E-6	-47.223908
1.55254E-6	-47.235382
1.552585E-6	-47.21475
1.55263E-6	-47.203331
1.552675E-6	-47.194216
1.55272E-6	-47.228494
1.552765E-6	-47.272304
1.55281E-6	-47.330631
1.552855E-6	-47.340036
1.5529E-6	-47.340036
1.552945E-6	-47.335331
1.55299E-6	-47.347104
1.553035E-6	-47.342391
1.55308E-6	-47.337683
1.553125E-6	-47.321246
1.55317E-6	-47.265357
1.553215E-6	-47.21475
1.55326E-6	-47.20105
1.553305E-6	-47.21475
1.55335E-6	-47.210179
1.553395E-6	-47.20105
1.55344E-6	-47.189666
1.553485E-6	-47.20105
1.55353E-6	-47.221617
1.553575E-6	-47.269987
1.55362E-6	-47.316561
1.553665E-6	-47.31422
1.55371E-6	-47.309543
1.553755E-6	-47.335331
1.5538E-6	-47.328283
1.553845E-6	-47.325936
1.55389E-6	-47.328283
1.553935E-6	-47.290884
1.55398E-6	-47.246886
1.554025E-6	-47.205612
1.55407E-6	-47.189666
1.554115E-6	-47.194216
1.55416E-6	-47.185121
1.554205E-6	-47.178312
1.55425E-6	-47.178312
1.554295E-6	-47.194216
1.55434E-6	-47.21475
1.554385E-6	-47.260732
1.55443E-6	-47.297871
1.554475E-6	-47.316561
1.55452E-6	-47.304871
1.554565E-6	-47.318903
1.55461E-6	-47.321246
1.554655E-6	-47.32359
1.5547E-6	-47.302536
1.554745E-6	-47.279262
1.55479E-6	-47.246886
1.554835E-6	-47.196493
1.55488E-6	-47.180581
1.554925E-6	-47.18285
1.55497E-6	-47.153437
1.555015E-6	-47.162466
1.55506E-6	-47.164726
1.555105E-6	-47.16925
1.55515E-6	-47.203331
1.555195E-6	-47.256112
1.55524E-6	-47.281584
1.555285E-6	-47.300203
1.55533E-6	-47.318903
1.555375E-6	-47.325936
1.55542E-6	-47.321246
1.555465E-6	-47.309543
1.55551E-6	-47.295541
1.555555E-6	-47.281584
1.5556E-6	-47.244583
1.555645E-6	-47.189666
1.55569E-6	-47.176045
1.555735E-6	-47.166988
1.55578E-6	-47.166988
1.555825E-6	-47.164726
1.55587E-6	-47.162466
1.555915E-6	-47.185121
1.55596E-6	-47.194216
1.556005E-6	-47.244583
1.55605E-6	-47.286231
1.556095E-6	-47.321246
1.55614E-6	-47.328283
1.556185E-6	-47.328283
1.55623E-6	-47.316561
1.556275E-6	-47.311881
1.55632E-6	-47.318903
1.556365E-6	-47.295541
1.55641E-6	-47.260732
1.556455E-6	-47.196493
1.5565E-6	-47.18285
1.556545E-6	-47.180581
1.55659E-6	-47.180581
1.556635E-6	-47.198771
1.55668E-6	-47.189666
1.556725E-6	-47.180581
1.55677E-6	-47.217038
1.556815E-6	-47.283907
1.55686E-6	-47.321246
1.556905E-6	-47.354183
1.55695E-6	-47.358908
1.556995E-6	-47.354183
1.55704E-6	-47.342391
1.557085E-6	-47.351822
1.55713E-6	-47.361273
1.557175E-6	-47.344747
1.55722E-6	-47.281584
1.557265E-6	-47.242281
1.55731E-6	-47.21475
1.557355E-6	-47.221617
1.5574E-6	-47.23998
1.557445E-6	-47.249191
1.55749E-6	-47.251497
1.557535E-6	-47.249191
1.55758E-6	-47.274622
1.557625E-6	-47.340036
1.55767E-6	-47.394516
1.557715E-6	-47.423214
1.55776E-6	-47.430418
1.557805E-6	-47.430418
1.55785E-6	-47.420815
1.557895E-6	-47.418418
1.55794E-6	-47.435228
1.557985E-6	-47.413627
1.55803E-6	-47.356545
1.558075E-6	-47.309543
1.55812E-6	-47.300203
1.558165E-6	-47.307206
1.55821E-6	-47.311881
1.558255E-6	-47.33298
1.5583E-6	-47.328283
1.558345E-6	-47.330631
1.55839E-6	-47.377863
1.558435E-6	-47.444863
1.55848E-6	-47.503126
1.558525E-6	-47.530093
1.55857E-6	-47.530093
1.558615E-6	-47.527635
1.55866E-6	-47.539941
1.558705E-6	-47.542406
1.55875E-6	-47.562181
1.558795E-6	-47.535014
1.55884E-6	-47.47147
1.558885E-6	-47.428016
1.55893E-6	-47.432823
1.558975E-6	-47.440043
1.55902E-6	-47.454519
1.559065E-6	-47.469044
1.55911E-6	-47.461776
1.559155E-6	-47.464197
1.5592E-6	-47.515363
1.559245E-6	-47.612014
1.55929E-6	-47.662426
1.559335E-6	-47.672579
1.55938E-6	-47.690404
1.559425E-6	-47.687854
1.55947E-6	-47.71343
1.559515E-6	-47.728849
1.55956E-6	-47.736579
1.559605E-6	-47.698066
1.55965E-6	-47.654827
1.559695E-6	-47.627077
1.55974E-6	-47.62205
1.559785E-6	-47.634627
1.55983E-6	-47.644716
1.559875E-6	-47.649768
1.55992E-6	-47.659892
1.559965E-6	-47.677665
1.56001E-6	-47.736579
1.560055E-6	-47.809397
1.5601E-6	-47.859513
1.560145E-6	-47.880789
1.56019E-6	-47.886124
1.560235E-6	-47.90217
1.56028E-6	-47.918275
1.560325E-6	-47.93444
1.56037E-6	-47.942545
1.560415E-6	-47.910215
1.56046E-6	-47.872798
1.560505E-6	-47.840982
1.56055E-6	-47.838341
1.560595E-6	-47.870138
1.56064E-6	-47.856861
1.560685E-6	-47.867479
1.56073E-6	-47.886124
1.560775E-6	-47.9129
1.56082E-6	-47.953375
1.560865E-6	-48.032713
1.56091E-6	-48.082696
1.560955E-6	-48.10229
1.561E-6	-48.116341
1.561045E-6	-48.150248
1.56109E-6	-48.158766
1.561135E-6	-48.17015
1.56118E-6	-48.181564
1.561225E-6	-48.164455
1.56127E-6	-48.127614
1.561315E-6	-48.096683
1.56136E-6	-48.110715
1.561405E-6	-48.116341
1.56145E-6	-48.124793
1.561495E-6	-48.136088
1.56154E-6	-48.147412
1.561585E-6	-48.181564
1.56163E-6	-48.233301
1.561675E-6	-48.288588
1.56172E-6	-48.341624
1.561765E-6	-48.362425
1.56181E-6	-48.392314
1.561855E-6	-48.422411
1.5619E-6	-48.443604
1.561945E-6	-48.44057
1.56199E-6	-48.44664
1.562035E-6	-48.434508
1.56208E-6	-48.41336
1.562125E-6	-48.380334
1.56217E-6	-48.392314
1.562215E-6	-48.38632
1.56226E-6	-48.389316
1.562305E-6	-48.407337
1.56235E-6	-48.428456
1.562395E-6	-48.449678
1.56244E-6	-48.51089
1.562485E-6	-48.579235
1.56253E-6	-48.626459
1.562575E-6	-48.655041
1.56262E-6	-48.690233
1.562665E-6	-48.716007
1.56271E-6	-48.728952
1.562755E-6	-48.732194
1.5628E-6	-48.735439
1.562845E-6	-48.745187
1.56289E-6	-48.738686
1.562935E-6	-48.693447
1.56298E-6	-48.699881
1.563025E-6	-48.699881
1.56307E-6	-48.703101
1.563115E-6	-48.738686
1.56316E-6	-48.748442
1.563205E-6	-48.774565
1.56325E-6	-48.817353
1.563295E-6	-48.880657
1.56334E-6	-48.931295
1.563385E-6	-48.982529
1.56343E-6	-49.006647
