Wavelength (nm)	Power (dBm)
1.525E-6	-47.370745
1.525045E-6	-47.272304
1.52509E-6	-47.187393
1.525135E-6	-47.113037
1.52518E-6	-47.048729
1.525225E-6	-46.942188
1.52527E-6	-46.855008
1.525315E-6	-46.771607
1.52536E-6	-46.667543
1.525405E-6	-46.571827
1.52545E-6	-46.470461
1.525495E-6	-46.343249
1.52554E-6	-46.205132
1.525585E-6	-46.069515
1.52563E-6	-45.975667
1.525675E-6	-45.821963
1.52572E-6	-45.772461
1.525765E-6	-45.655908
1.52581E-6	-45.583049
1.525855E-6	-45.545515
1.5259E-6	-45.543958
1.525945E-6	-45.519123
1.52599E-6	-45.468346
1.526035E-6	-45.453076
1.52608E-6	-45.347659
1.526125E-6	-45.287083
1.52617E-6	-45.234582
1.526215E-6	-45.113083
1.52626E-6	-44.996263
1.526305E-6	-44.837291
1.52635E-6	-44.705696
1.526395E-6	-44.586704
1.52644E-6	-44.480623
1.526485E-6	-44.434563
1.52653E-6	-44.385408
1.526575E-6	-44.325031
1.52662E-6	-44.293403
1.526665E-6	-44.352156
1.52671E-6	-44.393761
1.526755E-6	-44.40213
1.5268E-6	-44.390179
1.526845E-6	-44.346245
1.52689E-6	-44.310946
1.526935E-6	-44.240044
1.52698E-6	-44.193031
1.527025E-6	-44.086014
1.52707E-6	-43.896593
1.527115E-6	-43.687592
1.52716E-6	-43.572388
1.527205E-6	-43.517376
1.52725E-6	-43.503731
1.527295E-6	-43.412257
1.52734E-6	-43.406544
1.527385E-6	-43.401788
1.52743E-6	-43.445734
1.527475E-6	-43.597174
1.52752E-6	-43.691655
1.527565E-6	-43.711004
1.52761E-6	-43.704885
1.527655E-6	-43.650192
1.5277E-6	-43.603143
1.527745E-6	-43.568435
1.52779E-6	-43.540867
1.527835E-6	-43.333884
1.52788E-6	-43.092725
1.527925E-6	-42.96107
1.52797E-6	-42.883615
1.528015E-6	-42.850838
1.52806E-6	-42.860057
1.528105E-6	-42.842473
1.52815E-6	-42.76955
1.528195E-6	-42.911544
1.52824E-6	-43.086532
1.528285E-6	-43.299398
1.52833E-6	-43.320803
1.528375E-6	-43.326405
1.52842E-6	-43.309622
1.528465E-6	-43.305901
1.52851E-6	-43.307761
1.528555E-6	-43.230322
1.5286E-6	-43.084765
1.528645E-6	-42.793446
1.52869E-6	-42.628074
1.528735E-6	-42.579823
1.52878E-6	-42.564118
1.528825E-6	-42.564902
1.52887E-6	-42.556288
1.528915E-6	-42.553941
1.52896E-6	-42.620921
1.529005E-6	-42.806687
1.52905E-6	-43.077702
1.529095E-6	-43.176744
1.52914E-6	-43.173135
1.529185E-6	-43.186683
1.52923E-6	-43.174037
1.529275E-6	-43.164127
1.52932E-6	-43.16953
1.529365E-6	-43.029451
1.52941E-6	-42.788492
1.529455E-6	-42.564118
1.5295E-6	-42.497231
1.529545E-6	-42.468001
1.52959E-6	-42.485669
1.529635E-6	-42.492602
1.52968E-6	-42.456517
1.529725E-6	-42.502637
1.52977E-6	-42.664817
1.529815E-6	-42.937945
1.52986E-6	-43.135425
1.529905E-6	-43.175841
1.52995E-6	-43.157832
1.529995E-6	-43.142583
1.53004E-6	-43.168629
1.530085E-6	-43.150649
1.53013E-6	-43.106911
1.530175E-6	-42.863415
1.53022E-6	-42.594005
1.530265E-6	-42.491061
1.53031E-6	-42.480284
1.530355E-6	-42.486439
1.5304E-6	-42.472603
1.530445E-6	-42.445063
1.53049E-6	-42.50805
1.530535E-6	-42.60665
1.53058E-6	-42.874345
1.530625E-6	-43.147062
1.53067E-6	-43.167728
1.530715E-6	-43.199366
1.53076E-6	-43.178549
1.530805E-6	-43.231236
1.53085E-6	-43.226668
1.530895E-6	-43.184874
1.53094E-6	-43.032942
1.530985E-6	-42.76955
1.53103E-6	-42.584545
1.531075E-6	-42.529768
1.53112E-6	-42.540668
1.531165E-6	-42.582183
1.53121E-6	-42.54769
1.531255E-6	-42.544568
1.5313E-6	-42.662412
1.531345E-6	-42.9073
1.53139E-6	-43.166827
1.531435E-6	-43.287346
1.53148E-6	-43.311484
1.531525E-6	-43.351701
1.53157E-6	-43.355461
1.531615E-6	-43.362049
1.53166E-6	-43.366761
1.531705E-6	-43.238553
1.53175E-6	-42.980868
1.531795E-6	-42.8208
1.53184E-6	-42.753146
1.531885E-6	-42.735988
1.53193E-6	-42.705922
1.531975E-6	-42.76052
1.53202E-6	-42.786016
1.532065E-6	-42.795099
1.53211E-6	-43.016384
1.532155E-6	-43.267947
1.5322E-6	-43.473669
1.532245E-6	-43.528127
1.53229E-6	-43.54676
1.532335E-6	-43.592205
1.53238E-6	-43.603143
1.532425E-6	-43.601153
1.53247E-6	-43.572388
1.532515E-6	-43.386607
1.53256E-6	-43.110465
1.532605E-6	-43.001623
1.53265E-6	-42.97828
1.532695E-6	-42.980005
1.53274E-6	-43.026835
1.532785E-6	-43.026835
1.53283E-6	-43.05044
1.532875E-6	-43.201181
1.53292E-6	-43.484313
1.532965E-6	-43.72839
1.53301E-6	-43.844708
1.533055E-6	-43.905123
1.5331E-6	-43.921163
1.533145E-6	-43.955579
1.53319E-6	-43.969639
1.533235E-6	-43.968556
1.53328E-6	-43.854191
1.533325E-6	-43.621102
1.53337E-6	-43.417023
1.533415E-6	-43.365818
1.53346E-6	-43.401788
1.533505E-6	-43.40369
1.53355E-6	-43.46884
1.533595E-6	-43.48722
1.53364E-6	-43.570411
1.533685E-6	-43.791355
1.53373E-6	-44.08824
1.533775E-6	-44.280584
1.53382E-6	-44.349791
1.533865E-6	-44.387793
1.53391E-6	-44.40692
1.533955E-6	-44.451476
1.534E-6	-44.455108
1.534045E-6	-44.420119
1.53409E-6	-44.237739
1.534135E-6	-44.005536
1.53418E-6	-43.897658
1.534225E-6	-43.910463
1.53427E-6	-43.91367
1.534315E-6	-43.956659
1.53436E-6	-44.019759
1.534405E-6	-44.069356
1.53445E-6	-44.220489
1.534495E-6	-44.46117
1.53454E-6	-44.753443
1.534585E-6	-44.849213
1.53463E-6	-44.903943
1.534675E-6	-44.929541
1.53472E-6	-44.975729
1.534765E-6	-44.985299
1.53481E-6	-44.986668
1.534855E-6	-44.866492
1.5349E-6	-44.605475
1.534945E-6	-44.441803
1.53499E-6	-44.426131
1.535035E-6	-44.45632
1.53508E-6	-44.4855
1.535125E-6	-44.528409
1.53517E-6	-44.580465
1.535215E-6	-44.628108
1.53526E-6	-44.85718
1.535305E-6	-45.176982
1.53535E-6	-45.386516
1.535395E-6	-45.43634
1.53544E-6	-45.465288
1.535485E-6	-45.486742
1.53553E-6	-45.503673
1.535575E-6	-45.529971
1.53562E-6	-45.480601
1.535665E-6	-45.269512
1.53571E-6	-45.037625
1.535755E-6	-44.952574
1.5358E-6	-44.968906
1.535845E-6	-45.001755
1.53589E-6	-45.037625
1.535935E-6	-45.047333
1.53598E-6	-45.083582
1.536025E-6	-45.212892
1.53607E-6	-45.526869
1.536115E-6	-45.803746
1.53616E-6	-45.872036
1.536205E-6	-45.90405
1.53625E-6	-45.932895
1.536295E-6	-45.96022
1.53634E-6	-46.010189
1.536385E-6	-45.999804
1.53643E-6	-45.836924
1.536475E-6	-45.583049
1.53652E-6	-45.415132
1.536565E-6	-45.370034
1.53661E-6	-45.388017
1.536655E-6	-45.421181
1.5367E-6	-45.440898
1.536745E-6	-45.463759
1.53679E-6	-45.506759
1.536835E-6	-45.75445
1.53688E-6	-46.051982
1.536925E-6	-46.223296
1.53697E-6	-46.254349
1.537015E-6	-46.281935
1.53706E-6	-46.305986
1.537105E-6	-46.322715
1.53715E-6	-46.339508
1.537195E-6	-46.236056
1.53724E-6	-45.980827
1.537285E-6	-45.741399
1.53733E-6	-45.657505
1.537375E-6	-45.647929
1.53742E-6	-45.667103
1.537465E-6	-45.668705
1.53751E-6	-45.687971
1.537555E-6	-45.702477
1.5376E-6	-45.850267
1.537645E-6	-46.13501
1.53769E-6	-46.395959
1.537735E-6	-46.474316
1.53778E-6	-46.489771
1.537825E-6	-46.505282
1.53787E-6	-46.513058
1.537915E-6	-46.530605
1.53796E-6	-46.478175
1.538005E-6	-46.311555
1.53805E-6	-46.022337
1.538095E-6	-45.81533
1.53814E-6	-45.762628
1.538185E-6	-45.760991
1.53823E-6	-45.772461
1.538275E-6	-45.779028
1.53832E-6	-45.764265
1.538365E-6	-45.870357
1.53841E-6	-46.06074
1.538455E-6	-46.35449
1.5385E-6	-46.534514
1.538545E-6	-46.546263
1.53859E-6	-46.565914
1.538635E-6	-46.583677
1.53868E-6	-46.601512
1.538725E-6	-46.593576
1.53877E-6	-46.482037
1.538815E-6	-46.212388
1.53886E-6	-45.944829
1.538905E-6	-45.846927
1.53895E-6	-45.808707
1.538995E-6	-45.787252
1.53904E-6	-45.764265
1.539085E-6	-45.793842
1.53913E-6	-45.788899
1.539175E-6	-45.900669
1.53922E-6	-46.214204
1.539265E-6	-46.466609
1.53931E-6	-46.530605
1.539355E-6	-46.561977
1.5394E-6	-46.569855
1.539445E-6	-46.565914
1.53949E-6	-46.571827
1.539535E-6	-46.522798
1.53958E-6	-46.317131
1.539625E-6	-46.022337
1.53967E-6	-45.798792
1.539715E-6	-45.726762
1.53976E-6	-45.712175
1.539805E-6	-45.70894
1.53985E-6	-45.68154
1.539895E-6	-45.699249
1.53994E-6	-45.743028
1.539985E-6	-45.963648
1.54003E-6	-46.267201
1.540075E-6	-46.430186
1.54012E-6	-46.50334
1.540165E-6	-46.499459
1.54021E-6	-46.495581
1.540255E-6	-46.474316
1.5403E-6	-46.456994
1.540345E-6	-46.373291
1.54039E-6	-46.111886
1.540435E-6	-45.798792
1.54048E-6	-45.652715
1.540525E-6	-45.606673
1.54057E-6	-45.597208
1.540615E-6	-45.562678
1.54066E-6	-45.556429
1.540705E-6	-45.592483
1.54075E-6	-45.689581
1.540795E-6	-45.968795
1.54084E-6	-46.245193
1.540885E-6	-46.378947
1.54093E-6	-46.38461
1.540975E-6	-46.378947
1.54102E-6	-46.362001
1.541065E-6	-46.356366
1.54111E-6	-46.304131
1.541155E-6	-46.169031
1.5412E-6	-45.868679
1.541245E-6	-45.575202
1.54129E-6	-45.491353
1.541335E-6	-45.451551
1.54138E-6	-45.440898
1.541425E-6	-45.450028
1.54147E-6	-45.427238
1.541515E-6	-45.462231
1.54156E-6	-45.665502
1.541605E-6	-45.96022
1.54165E-6	-46.185239
1.541695E-6	-46.250684
1.54174E-6	-46.276404
1.541785E-6	-46.26904
1.54183E-6	-46.256183
1.541875E-6	-46.252517
1.54192E-6	-46.17983
1.541965E-6	-45.96022
1.54201E-6	-45.636783
1.542055E-6	-45.409092
1.5421E-6	-45.350636
1.542145E-6	-45.352125
1.54219E-6	-45.344684
1.542235E-6	-45.343198
1.54228E-6	-45.343198
1.542325E-6	-45.415132
1.54237E-6	-45.636783
1.542415E-6	-45.96022
1.54246E-6	-46.145725
1.542505E-6	-46.176227
1.54255E-6	-46.170829
1.542595E-6	-46.165437
1.54264E-6	-46.149302
1.542685E-6	-46.154674
1.54273E-6	-46.051982
1.542775E-6	-45.728386
1.54282E-6	-45.434821
1.542865E-6	-45.284149
1.54291E-6	-45.269512
1.542955E-6	-45.282683
1.543E-6	-45.297366
1.543045E-6	-45.281218
1.54309E-6	-45.269512
1.543135E-6	-45.394028
1.54318E-6	-45.718652
1.543225E-6	-46.006725
1.54327E-6	-46.129663
1.543315E-6	-46.120765
1.54336E-6	-46.108339
1.543405E-6	-46.124322
1.54345E-6	-46.111886
1.543495E-6	-46.099485
1.54354E-6	-45.914209
1.543585E-6	-45.590909
1.54363E-6	-45.326879
1.543675E-6	-45.234582
1.54372E-6	-45.238933
1.543765E-6	-45.237482
1.54381E-6	-45.246194
1.543855E-6	-45.230235
1.5439E-6	-45.284149
1.543945E-6	-45.492891
1.54399E-6	-45.840256
1.544035E-6	-46.078309
1.54408E-6	-46.127882
1.544125E-6	-46.136794
1.54417E-6	-46.131445
1.544215E-6	-46.149302
1.54426E-6	-46.136794
1.544305E-6	-46.076548
1.54435E-6	-45.818645
1.544395E-6	-45.50059
1.54444E-6	-45.313573
1.544485E-6	-45.276825
1.54453E-6	-45.269512
1.544575E-6	-45.28855
1.54462E-6	-45.254924
1.544665E-6	-45.270973
1.54471E-6	-45.355105
1.544755E-6	-45.614577
1.5448E-6	-45.946536
1.544845E-6	-46.127882
1.54489E-6	-46.149302
1.544935E-6	-46.131445
1.54498E-6	-46.104795
1.545025E-6	-45.902359
1.54507E-6	-44.813545
1.545115E-6	-35.999804
1.54516E-6	-25.171264
1.545205E-6	-20.072256
1.54525E-6	-18.041003
1.545295E-6	-17.577071
1.54534E-6	-17.493361
1.545385E-6	-17.50557
1.54543E-6	-17.490923
1.545475E-6	-17.9588
1.54552E-6	-20.067402
1.545565E-6	-25.250557
1.54561E-6	-34.89321
1.545655E-6	-42.615366
1.5457E-6	-45.370034
1.545745E-6	-45.985995
1.54579E-6	-46.13501
1.545835E-6	-46.174427
1.54588E-6	-46.17983
1.545925E-6	-46.029295
1.54597E-6	-45.713793
1.546015E-6	-45.43634
1.54606E-6	-45.340226
1.546105E-6	-45.335773
1.54615E-6	-45.31505
1.546195E-6	-45.325399
1.54624E-6	-45.322439
1.546285E-6	-45.364056
1.54633E-6	-45.539291
1.546375E-6	-45.877075
1.54642E-6	-46.133227
1.546465E-6	-46.223296
1.54651E-6	-46.241536
1.546555E-6	-46.252517
1.5466E-6	-46.26904
1.546645E-6	-46.258017
1.54669E-6	-46.20332
1.546735E-6	-46.003263
1.54678E-6	-45.67191
1.546825E-6	-45.451551
1.54687E-6	-45.383514
1.546915E-6	-45.368539
1.54696E-6	-45.362563
1.547005E-6	-45.370034
1.54705E-6	-45.373026
1.547095E-6	-45.446982
1.54714E-6	-45.683147
1.547185E-6	-45.999804
1.54723E-6	-46.216021
1.547275E-6	-46.278247
1.54732E-6	-46.289321
1.547365E-6	-46.298572
1.54741E-6	-46.298572
1.547455E-6	-46.287474
1.5475E-6	-46.210573
1.547545E-6	-45.968795
1.54759E-6	-45.638374
1.547635E-6	-45.457651
1.54768E-6	-45.407583
1.547725E-6	-45.394028
1.54777E-6	-45.400047
1.547815E-6	-45.410601
1.54786E-6	-45.427238
1.547905E-6	-45.520671
1.54795E-6	-45.782316
1.547995E-6	-46.115435
1.54804E-6	-46.298572
1.548085E-6	-46.34512
1.54813E-6	-46.35449
1.548175E-6	-46.360122
1.54822E-6	-46.348866
1.548265E-6	-46.337639
1.54831E-6	-46.236056
1.548355E-6	-45.932895
1.5484E-6	-45.630427
1.548445E-6	-45.480601
1.54849E-6	-45.443939
1.548535E-6	-45.431787
1.54858E-6	-45.431787
1.548625E-6	-45.4546
1.54867E-6	-45.476002
1.548715E-6	-45.594057
1.54876E-6	-45.893915
1.548805E-6	-46.206945
1.54885E-6	-46.35074
1.548895E-6	-46.38839
1.54894E-6	-46.395959
1.548985E-6	-46.390281
1.54903E-6	-46.377061
1.549075E-6	-46.36388
1.54912E-6	-46.210573
1.549165E-6	-45.883803
1.54921E-6	-45.590909
1.549255E-6	-45.472938
1.5493E-6	-45.44546
1.549345E-6	-45.442418
1.54939E-6	-45.453076
1.549435E-6	-45.451551
1.54948E-6	-45.480601
1.549525E-6	-45.641556
1.54957E-6	-45.979106
1.549615E-6	-46.265363
1.54966E-6	-46.378947
1.549705E-6	-46.382722
1.54975E-6	-46.36388
1.549795E-6	-46.281935
1.54984E-6	-45.835259
1.549885E-6	-43.291977
1.54993E-6	-30.355518
1.549975E-6	-22.091521
1.55002E-6	-18.613816
1.550065E-6	-17.537477
1.55011E-6	-17.380238
1.550155E-6	-17.351822
1.5502E-6	-17.304871
1.550245E-6	-17.401673
1.55029E-6	-18.244882
1.550335E-6	-21.234358
1.55038E-6	-28.359447
1.550425E-6	-38.887375
1.55047E-6	-44.182778
1.550515E-6	-45.878756
1.55056E-6	-46.245193
1.550605E-6	-46.328305
1.55065E-6	-46.348866
1.550695E-6	-46.309698
1.55074E-6	-46.080069
1.550785E-6	-45.715412
1.55083E-6	-45.471407
1.550875E-6	-45.412111
1.55092E-6	-45.391022
1.550965E-6	-45.398542
1.55101E-6	-45.404567
1.551055E-6	-45.394028
1.5511E-6	-45.433304
1.551145E-6	-45.691191
1.55119E-6	-46.078309
1.551235E-6	-46.311555
1.55128E-6	-46.362001
1.551325E-6	-46.35449
1.55137E-6	-46.35074
1.551415E-6	-46.35449
1.55146E-6	-46.358244
1.551505E-6	-46.278247
1.55155E-6	-45.977386
1.551595E-6	-45.597208
1.55164E-6	-45.389519
1.551685E-6	-45.347659
1.55173E-6	-45.352125
1.551775E-6	-45.347659
1.55182E-6	-45.338741
1.551865E-6	-45.329842
1.55191E-6	-45.412111
1.551955E-6	-45.707323
1.552E-6	-46.080069
1.552045E-6	-46.289321
1.55209E-6	-46.318991
1.552135E-6	-46.315272
1.55218E-6	-46.309698
1.552225E-6	-46.332036
1.55227E-6	-46.322715
1.552315E-6	-46.201508
1.55236E-6	-45.861975
1.552405E-6	-45.49443
1.55245E-6	-45.325399
1.552495E-6	-45.287083
1.55254E-6	-45.290018
1.552585E-6	-45.282683
1.55263E-6	-45.263671
1.552675E-6	-45.263671
1.55272E-6	-45.392525
1.552765E-6	-45.723516
1.55281E-6	-46.081831
1.552855E-6	-46.248853
1.5529E-6	-46.281935
1.552945E-6	-46.278247
1.55299E-6	-46.280091
1.553035E-6	-46.283781
1.55308E-6	-46.259853
1.553125E-6	-46.117211
1.55317E-6	-45.75445
1.553215E-6	-45.409092
1.55326E-6	-45.250557
1.553305E-6	-45.22734
1.55335E-6	-45.210009
1.553395E-6	-45.191311
1.55344E-6	-45.189876
1.553485E-6	-45.207127
1.55353E-6	-45.36555
1.553575E-6	-45.718652
1.55362E-6	-46.066003
1.553665E-6	-46.199698
1.55371E-6	-46.239708
1.553755E-6	-46.236056
1.5538E-6	-46.239708
1.553845E-6	-46.247023
1.55389E-6	-46.212388
1.553935E-6	-46.027554
1.55398E-6	-45.652715
1.554025E-6	-45.313573
1.55407E-6	-45.176982
1.554115E-6	-45.158426
1.55416E-6	-45.137112
1.554205E-6	-45.128616
1.55425E-6	-45.128616
1.554295E-6	-45.165554
1.55434E-6	-45.341712
1.554385E-6	-45.699249
1.55443E-6	-46.048484
1.554475E-6	-46.174427
1.55452E-6	-46.197888
1.554565E-6	-46.217839
1.55461E-6	-46.208759
1.554655E-6	-46.20332
1.5547E-6	-46.161846
1.554745E-6	-45.961934
1.55479E-6	-45.559552
1.554835E-6	-45.241836
1.55488E-6	-45.122961
1.554925E-6	-45.076587
1.55497E-6	-45.068209
1.555015E-6	-45.057062
1.55506E-6	-45.068209
1.555105E-6	-45.113083
1.55515E-6	-45.310622
1.555195E-6	-45.691191
1.55524E-6	-46.029295
1.555285E-6	-46.147513
1.55533E-6	-46.174427
1.555375E-6	-46.187044
1.55542E-6	-46.172627
1.555465E-6	-46.163641
1.55551E-6	-46.120765
1.555555E-6	-45.907433
1.5556E-6	-45.491353
1.555645E-6	-45.176982
1.55569E-6	-45.071
1.555735E-6	-45.043169
1.55578E-6	-45.032087
1.555825E-6	-45.033471
1.55587E-6	-45.040396
1.555915E-6	-45.083582
1.55596E-6	-45.295895
1.556005E-6	-45.689581
1.55605E-6	-46.032777
1.556095E-6	-46.151092
1.55614E-6	-46.176227
1.556185E-6	-46.176227
1.55623E-6	-46.160052
1.556275E-6	-46.163641
1.55632E-6	-46.129663
1.556365E-6	-45.887171
1.55641E-6	-45.469876
1.556455E-6	-45.157002
1.5565E-6	-45.03901
1.556545E-6	-45.021033
1.55659E-6	-45.025175
1.556635E-6	-45.033471
1.55668E-6	-45.03901
1.556725E-6	-45.07519
1.55677E-6	-45.298836
1.556815E-6	-45.717032
1.55686E-6	-46.055483
1.556905E-6	-46.174427
1.55695E-6	-46.192462
1.556995E-6	-46.185239
1.55704E-6	-46.185239
1.557085E-6	-46.181632
1.55713E-6	-46.143937
1.557175E-6	-45.898979
1.55722E-6	-45.468346
1.557265E-6	-45.168408
1.55731E-6	-45.068209
1.557355E-6	-45.059846
1.5574E-6	-45.064026
1.557445E-6	-45.073793
1.55749E-6	-45.073793
1.557535E-6	-45.130031
1.55758E-6	-45.358086
1.557625E-6	-45.783961
1.55767E-6	-46.124322
1.557715E-6	-46.23423
1.55776E-6	-46.245193
1.557805E-6	-46.245193
1.55785E-6	-46.250684
1.557895E-6	-46.259853
1.55794E-6	-46.223296
1.557985E-6	-45.973948
1.55803E-6	-45.539291
1.558075E-6	-45.224447
1.55812E-6	-45.144205
1.558165E-6	-45.132862
1.55821E-6	-45.145625
1.558255E-6	-45.145625
1.5583E-6	-45.155578
1.558345E-6	-45.208568
1.55839E-6	-45.451551
1.558435E-6	-45.890541
1.55848E-6	-46.22876
1.558525E-6	-46.339508
1.55857E-6	-46.35074
1.558615E-6	-46.35449
1.55866E-6	-46.360122
1.558705E-6	-46.378947
1.55875E-6	-46.348866
1.558795E-6	-46.081831
1.55884E-6	-45.659104
1.558885E-6	-45.367044
1.55893E-6	-45.276825
1.558975E-6	-45.28855
1.55902E-6	-45.303252
1.559065E-6	-45.307673
1.55911E-6	-45.300308
1.559155E-6	-45.356595
1.5592E-6	-45.616159
1.559245E-6	-46.058987
1.55929E-6	-46.395959
1.559335E-6	-46.499459
1.55938E-6	-46.520848
1.559425E-6	-46.530605
1.55947E-6	-46.558043
1.559515E-6	-46.575773
1.55956E-6	-46.528652
1.559605E-6	-46.272721
1.55965E-6	-45.850267
1.559695E-6	-45.570501
1.55974E-6	-45.488278
1.559785E-6	-45.488278
1.55983E-6	-45.50059
1.559875E-6	-45.503673
1.55992E-6	-45.508303
1.559965E-6	-45.568935
1.56001E-6	-45.836924
1.560055E-6	-46.278247
1.5601E-6	-46.621416
1.560145E-6	-46.720284
1.56019E-6	-46.734593
1.560235E-6	-46.763355
1.56028E-6	-46.777807
1.560325E-6	-46.806857
1.56037E-6	-46.763355
1.560415E-6	-46.5267
1.56046E-6	-46.108339
1.560505E-6	-45.823623
1.56055E-6	-45.743028
1.560595E-6	-45.746288
1.56064E-6	-45.756084
1.560685E-6	-45.767541
1.56073E-6	-45.785606
1.560775E-6	-45.855281
1.56082E-6	-46.106567
1.560865E-6	-46.528652
1.56091E-6	-46.85922
1.560955E-6	-46.968039
1.561E-6	-47.000571
1.561045E-6	-47.031155
1.56109E-6	-47.048729
1.561135E-6	-47.066374
1.56118E-6	-47.039933
1.561225E-6	-46.815193
1.56127E-6	-46.416844
1.561315E-6	-46.14215
1.56136E-6	-46.064248
1.561405E-6	-46.066003
1.56145E-6	-46.07303
1.561495E-6	-46.08712
1.56154E-6	-46.103025
1.561585E-6	-46.169031
1.56163E-6	-46.3865
1.561675E-6	-46.802695
1.56172E-6	-47.14893
1.561765E-6	-47.286231
1.56181E-6	-47.32359
1.561855E-6	-47.347104
1.5619E-6	-47.366007
1.561945E-6	-47.387371
1.56199E-6	-47.363639
1.562035E-6	-47.194216
1.56208E-6	-46.802695
1.562125E-6	-46.513058
1.56217E-6	-46.414941
1.562215E-6	-46.411138
1.56226E-6	-46.413039
1.562305E-6	-46.432095
1.56235E-6	-46.464684
1.562395E-6	-46.513058
1.56244E-6	-46.701955
1.562485E-6	-47.095202
1.56253E-6	-47.456937
1.562575E-6	-47.609509
1.56262E-6	-47.677665
1.562665E-6	-47.703182
1.56271E-6	-47.723704
1.562755E-6	-47.736579
1.5628E-6	-47.721133
1.562845E-6	-47.579558
1.56289E-6	-47.235382
1.562935E-6	-46.918626
1.56298E-6	-46.79646
1.563025E-6	-46.773673
1.56307E-6	-46.79646
1.563115E-6	-46.827727
1.56316E-6	-46.850799
1.563205E-6	-46.895191
1.56325E-6	-47.068585
1.563295E-6	-47.430418
1.56334E-6	-47.825161
1.563385E-6	-47.994231
1.56343E-6	-48.071539
1.563475E-6	-48.088285
