Wavelength (nm)	Power (dBm)
1.525E-6	-48.032713
1.525045E-6	-47.93714
1.52509E-6	-47.846268
1.525135E-6	-47.770236
1.52518E-6	-47.690404
1.525225E-6	-47.589518
1.52527E-6	-47.500682
1.525315E-6	-47.416022
1.52536E-6	-47.32359
1.525405E-6	-47.219327
1.52545E-6	-47.117508
1.525495E-6	-47.000571
1.52554E-6	-46.867657
1.525585E-6	-46.746896
1.52563E-6	-46.643415
1.525675E-6	-46.544302
1.52572E-6	-46.445485
1.525765E-6	-46.362001
1.52581E-6	-46.281935
1.525855E-6	-46.22876
1.5259E-6	-46.208759
1.525945E-6	-46.172627
1.52599E-6	-46.127882
1.526035E-6	-46.078309
1.52608E-6	-46.004993
1.526125E-6	-45.946536
1.52617E-6	-45.861975
1.526215E-6	-45.772461
1.52626E-6	-45.657505
1.526305E-6	-45.533075
1.52635E-6	-45.37602
1.526395E-6	-45.295895
1.52644E-6	-45.204247
1.526485E-6	-45.15131
1.52653E-6	-45.090588
1.526575E-6	-45.044557
1.52662E-6	-45.004504
1.526665E-6	-45.036239
1.52671E-6	-45.0515
1.526755E-6	-45.072396
1.5268E-6	-45.0515
1.526845E-6	-45.000381
1.52689E-6	-44.94172
1.526935E-6	-44.887853
1.52698E-6	-44.795165
1.527025E-6	-44.736607
1.52707E-6	-44.570502
1.527115E-6	-44.42132
1.52716E-6	-44.320331
1.527205E-6	-44.249277
1.52725E-6	-44.210172
1.527295E-6	-44.185055
1.52734E-6	-44.130753
1.527385E-6	-44.104972
1.52743E-6	-44.162346
1.527475E-6	-44.277094
1.52752E-6	-44.372315
1.527565E-6	-44.367563
1.52761E-6	-44.345064
1.527655E-6	-44.294571
1.5277E-6	-44.281748
1.527745E-6	-44.246967
1.52779E-6	-44.17823
1.527835E-6	-44.017568
1.52788E-6	-43.823707
1.527925E-6	-43.683533
1.52797E-6	-43.67138
1.528015E-6	-43.643152
1.52806E-6	-43.609121
1.528105E-6	-43.608124
1.52815E-6	-43.586251
1.528195E-6	-43.649186
1.52824E-6	-43.834195
1.528285E-6	-43.94695
1.52833E-6	-44.021952
1.528375E-6	-44.009908
1.52842E-6	-43.967473
1.528465E-6	-43.995717
1.52851E-6	-43.965308
1.528555E-6	-43.9545
1.5286E-6	-43.799681
1.528645E-6	-43.586251
1.52869E-6	-43.417977
1.528735E-6	-43.385659
1.52878E-6	-43.368647
1.528825E-6	-43.379981
1.52887E-6	-43.381873
1.528915E-6	-43.359224
1.52896E-6	-43.410352
1.529005E-6	-43.564486
1.52905E-6	-43.787198
1.529095E-6	-43.893398
1.52914E-6	-43.904056
1.529185E-6	-43.863696
1.52923E-6	-43.872161
1.529275E-6	-43.87428
1.52932E-6	-43.884891
1.529365E-6	-43.77268
1.52941E-6	-43.554629
1.529455E-6	-43.359224
1.5295E-6	-43.308692
1.529545E-6	-43.292904
1.52959E-6	-43.290124
1.529635E-6	-43.283644
1.52968E-6	-43.307761
1.529725E-6	-43.318938
1.52977E-6	-43.463052
1.529815E-6	-43.713046
1.52986E-6	-43.857357
1.529905E-6	-43.880644
1.52995E-6	-43.893398
1.529995E-6	-43.873221
1.53004E-6	-43.880644
1.530085E-6	-43.915809
1.53013E-6	-43.851028
1.530175E-6	-43.638131
1.53022E-6	-43.435185
1.530265E-6	-43.346066
1.53031E-6	-43.315209
1.530355E-6	-43.293831
1.5304E-6	-43.310553
1.530445E-6	-43.318005
1.53049E-6	-43.326405
1.530535E-6	-43.455347
1.53058E-6	-43.660268
1.530625E-6	-43.868985
1.53067E-6	-43.930815
1.530715E-6	-43.935111
1.53076E-6	-43.955579
1.530805E-6	-43.983745
1.53085E-6	-43.963145
1.530895E-6	-43.942641
1.53094E-6	-43.790316
1.530985E-6	-43.593198
1.53103E-6	-43.435185
1.531075E-6	-43.406544
1.53112E-6	-43.414163
1.531165E-6	-43.419886
1.53121E-6	-43.402739
1.531255E-6	-43.397988
1.5313E-6	-43.513473
1.531345E-6	-43.695721
1.53139E-6	-43.948027
1.531435E-6	-44.037329
1.53148E-6	-44.063817
1.531525E-6	-44.089354
1.53157E-6	-44.108326
1.531615E-6	-44.089354
1.53166E-6	-44.10609
1.531705E-6	-44.006629
1.53175E-6	-43.799681
1.531795E-6	-43.641143
1.53184E-6	-43.557584
1.531885E-6	-43.574366
1.53193E-6	-43.553645
1.531975E-6	-43.578324
1.53202E-6	-43.600158
1.532065E-6	-43.646168
1.53211E-6	-43.788237
1.532155E-6	-44.040631
1.5322E-6	-44.196453
1.532245E-6	-44.258529
1.53229E-6	-44.280584
1.532335E-6	-44.300412
1.53238E-6	-44.334447
1.532425E-6	-44.330913
1.53247E-6	-44.294571
1.532515E-6	-44.121768
1.53256E-6	-43.929741
1.532605E-6	-43.839448
1.53265E-6	-43.825803
1.532695E-6	-43.81429
1.53274E-6	-43.832095
1.532785E-6	-43.860525
1.53283E-6	-43.91474
1.532875E-6	-43.988095
1.53292E-6	-44.252744
1.532965E-6	-44.450265
1.53301E-6	-44.550642
1.533055E-6	-44.565528
1.5331E-6	-44.626847
1.533145E-6	-44.625587
1.53319E-6	-44.672456
1.533235E-6	-44.633153
1.53328E-6	-44.544455
1.533325E-6	-44.367563
1.53337E-6	-44.23083
1.533415E-6	-44.175957
1.53346E-6	-44.19189
1.533505E-6	-44.223933
1.53355E-6	-44.24235
1.533595E-6	-44.293403
1.53364E-6	-44.334447
1.533685E-6	-44.535807
1.53373E-6	-44.761235
1.533775E-6	-44.918745
1.53382E-6	-44.967542
1.533865E-6	-45.026556
1.53391E-6	-45.019653
1.533955E-6	-45.066814
1.534E-6	-45.090588
1.534045E-6	-45.047333
1.53409E-6	-44.903943
1.534135E-6	-44.726279
1.53418E-6	-44.671183
1.534225E-6	-44.639468
1.53427E-6	-44.662279
1.534315E-6	-44.698003
1.53436E-6	-44.745664
1.534405E-6	-44.766438
1.53445E-6	-44.890531
1.534495E-6	-45.115903
1.53454E-6	-45.350636
1.534585E-6	-45.450028
1.53463E-6	-45.476002
1.534675E-6	-45.491353
1.53472E-6	-45.511392
1.534765E-6	-45.536182
1.53481E-6	-45.543958
1.534855E-6	-45.450028
1.5349E-6	-45.278289
1.534945E-6	-45.162701
1.53499E-6	-45.118725
1.535035E-6	-45.139948
1.53508E-6	-45.189876
1.535125E-6	-45.210009
1.53517E-6	-45.237482
1.535215E-6	-45.300308
1.53526E-6	-45.485206
1.535305E-6	-45.712175
1.53535E-6	-45.893915
1.535395E-6	-45.939711
1.53544E-6	-45.949953
1.535485E-6	-45.972229
1.53553E-6	-46.004993
1.535575E-6	-46.022337
1.53562E-6	-45.999804
1.535665E-6	-45.841923
1.53571E-6	-45.663902
1.535755E-6	-45.586191
1.5358E-6	-45.594057
1.535845E-6	-45.627252
1.53589E-6	-45.639965
1.535935E-6	-45.67191
1.53598E-6	-45.697636
1.536025E-6	-45.81533
1.53607E-6	-46.031036
1.536115E-6	-46.226937
1.53616E-6	-46.326441
1.536205E-6	-46.305986
1.53625E-6	-46.35074
1.536295E-6	-46.403542
1.53634E-6	-46.403542
1.536385E-6	-46.390281
1.53643E-6	-46.280091
1.536475E-6	-46.099485
1.53652E-6	-45.949953
1.536565E-6	-45.944829
1.53661E-6	-45.961934
1.536655E-6	-46.015392
1.5367E-6	-46.018863
1.536745E-6	-46.018863
1.53679E-6	-46.080069
1.536835E-6	-46.252517
1.53688E-6	-46.483969
1.536925E-6	-46.609463
1.53697E-6	-46.619421
1.537015E-6	-46.645421
1.53706E-6	-46.635403
1.537105E-6	-46.683703
1.53715E-6	-46.697892
1.537195E-6	-46.631402
1.53724E-6	-46.456994
1.537285E-6	-46.281935
1.53733E-6	-46.190655
1.537375E-6	-46.216021
1.53742E-6	-46.201508
1.537465E-6	-46.223296
1.53751E-6	-46.192462
1.537555E-6	-46.22876
1.5376E-6	-46.320853
1.537645E-6	-46.546263
1.53769E-6	-46.744843
1.537735E-6	-46.798537
1.53778E-6	-46.808939
1.537825E-6	-46.802695
1.53787E-6	-46.827727
1.537915E-6	-46.834007
1.53796E-6	-46.823545
1.538005E-6	-46.695862
1.53805E-6	-46.456994
1.538095E-6	-46.333903
1.53814E-6	-46.300424
1.538185E-6	-46.311555
1.53823E-6	-46.278247
1.538275E-6	-46.29117
1.53832E-6	-46.280091
1.538365E-6	-46.332036
1.53841E-6	-46.518899
1.538455E-6	-46.736641
1.5385E-6	-46.838199
1.538545E-6	-46.878226
1.53859E-6	-46.869769
1.538635E-6	-46.873996
1.53868E-6	-46.876111
1.538725E-6	-46.882461
1.53877E-6	-46.794383
1.538815E-6	-46.611453
1.53886E-6	-46.413039
1.538905E-6	-46.333903
1.53895E-6	-46.293019
1.538995E-6	-46.281935
1.53904E-6	-46.287474
1.539085E-6	-46.272721
1.53913E-6	-46.29117
1.539175E-6	-46.390281
1.53922E-6	-46.589614
1.539265E-6	-46.755118
1.53931E-6	-46.821455
1.539355E-6	-46.842395
1.5394E-6	-46.857113
1.539445E-6	-46.852903
1.53949E-6	-46.857113
1.539535E-6	-46.819367
1.53958E-6	-46.665527
1.539625E-6	-46.460838
1.53967E-6	-46.305986
1.539715E-6	-46.232406
1.53976E-6	-46.214204
1.539805E-6	-46.205132
1.53985E-6	-46.205132
1.539895E-6	-46.201508
1.53994E-6	-46.230582
1.539985E-6	-46.395959
1.54003E-6	-46.597542
1.540075E-6	-46.732546
1.54012E-6	-46.755118
1.540165E-6	-46.769543
1.54021E-6	-46.773673
1.540255E-6	-46.769543
1.5403E-6	-46.744843
1.540345E-6	-46.643415
1.54039E-6	-46.487837
1.540435E-6	-46.287474
1.54048E-6	-46.172627
1.540525E-6	-46.097716
1.54057E-6	-46.106567
1.540615E-6	-46.081831
1.54066E-6	-46.083593
1.540705E-6	-46.106567
1.54075E-6	-46.167233
1.540795E-6	-46.367642
1.54084E-6	-46.577748
1.540885E-6	-46.645421
1.54093E-6	-46.667543
1.540975E-6	-46.663512
1.54102E-6	-46.661499
1.541065E-6	-46.659486
1.54111E-6	-46.613443
1.541155E-6	-46.49752
1.5412E-6	-46.278247
1.541245E-6	-46.076548
1.54129E-6	-46.008457
1.541335E-6	-45.968795
1.54138E-6	-45.96022
1.541425E-6	-45.963648
1.54147E-6	-45.961934
1.541515E-6	-45.985995
1.54156E-6	-46.104795
1.541605E-6	-46.343249
1.54165E-6	-46.505282
1.541695E-6	-46.565914
1.54174E-6	-46.585655
1.541785E-6	-46.550186
1.54183E-6	-46.548224
1.541875E-6	-46.532559
1.54192E-6	-46.49752
1.541965E-6	-46.33577
1.54201E-6	-46.083593
1.542055E-6	-45.961934
1.5421E-6	-45.86365
1.542145E-6	-45.8603
1.54219E-6	-45.86365
1.542235E-6	-45.853609
1.54228E-6	-45.865326
1.542325E-6	-45.926091
1.54237E-6	-46.090649
1.542415E-6	-46.348866
1.54246E-6	-46.449318
1.542505E-6	-46.482037
1.54255E-6	-46.466609
1.542595E-6	-46.466609
1.54264E-6	-46.470461
1.542685E-6	-46.462761
1.54273E-6	-46.382722
1.542775E-6	-46.163641
1.54282E-6	-45.941416
1.542865E-6	-45.813673
1.54291E-6	-45.813673
1.542955E-6	-45.802094
1.543E-6	-45.808707
1.543045E-6	-45.795491
1.54309E-6	-45.813673
1.543135E-6	-45.907433
1.54318E-6	-46.117211
1.543225E-6	-46.358244
1.54327E-6	-46.441655
1.543315E-6	-46.443569
1.54336E-6	-46.434006
1.543405E-6	-46.441655
1.54345E-6	-46.430186
1.543495E-6	-46.40544
1.54354E-6	-46.304131
1.543585E-6	-46.046736
1.54363E-6	-45.851937
1.543675E-6	-45.803746
1.54372E-6	-45.782316
1.543765E-6	-45.805399
1.54381E-6	-45.802094
1.543855E-6	-45.802094
1.5439E-6	-45.84359
1.543945E-6	-45.979106
1.54399E-6	-46.216021
1.544035E-6	-46.401645
1.54408E-6	-46.437829
1.544125E-6	-46.435917
1.54417E-6	-46.449318
1.544215E-6	-46.455074
1.54426E-6	-46.456994
1.544305E-6	-46.42637
1.54435E-6	-46.245193
1.544395E-6	-45.99462
1.54444E-6	-45.858626
1.544485E-6	-45.836924
1.54453E-6	-45.831931
1.544575E-6	-45.841923
1.54462E-6	-45.805399
1.544665E-6	-45.841923
1.54471E-6	-45.893915
1.544755E-6	-46.111886
1.5448E-6	-46.348866
1.544845E-6	-46.468535
1.54489E-6	-46.478175
1.544935E-6	-46.456994
1.54498E-6	-46.453154
1.545025E-6	-46.311555
1.54507E-6	-45.534628
1.545115E-6	-37.9129
1.54516E-6	-27.018021
1.545205E-6	-21.936843
1.54525E-6	-19.838026
1.545295E-6	-19.381707
1.54534E-6	-19.314431
1.545385E-6	-19.30702
1.54543E-6	-19.318141
1.545475E-6	-19.726504
1.54552E-6	-21.852199
1.545565E-6	-26.91009
1.54561E-6	-36.655462
1.545655E-6	-43.614109
1.5457E-6	-45.883803
1.545745E-6	-46.3865
1.54579E-6	-46.493644
1.545835E-6	-46.532559
1.54588E-6	-46.524748
1.545925E-6	-46.434006
1.54597E-6	-46.219657
1.546015E-6	-46.013657
1.54606E-6	-45.944829
1.546105E-6	-45.934598
1.54615E-6	-45.934598
1.546195E-6	-45.932895
1.54624E-6	-45.932895
1.546285E-6	-45.958508
1.54633E-6	-46.097716
1.546375E-6	-46.339508
1.54642E-6	-46.509168
1.546465E-6	-46.575773
1.54651E-6	-46.591595
1.546555E-6	-46.583677
1.5466E-6	-46.542343
1.546645E-6	-46.22876
1.54669E-6	-43.976144
1.546735E-6	-31.614657
1.54678E-6	-23.833145
1.546825E-6	-20.588863
1.54687E-6	-19.574245
1.546915E-6	-19.408154
1.54696E-6	-19.393022
1.547005E-6	-19.385475
1.54705E-6	-19.542859
1.547095E-6	-20.691019
1.54714E-6	-24.264322
1.547185E-6	-31.639925
1.54723E-6	-41.07349
1.547275E-6	-45.373026
1.54732E-6	-46.36388
1.547365E-6	-46.577748
1.54741E-6	-46.617428
1.547455E-6	-46.631402
1.5475E-6	-46.585655
1.547545E-6	-46.420652
1.54759E-6	-46.19427
1.547635E-6	-46.058987
1.54768E-6	-46.025815
1.547725E-6	-46.011923
1.54777E-6	-46.018863
1.547815E-6	-46.027554
1.54786E-6	-46.048484
1.547905E-6	-46.111886
1.54795E-6	-46.29672
1.547995E-6	-46.532559
1.54804E-6	-46.643415
1.548085E-6	-46.68168
1.54813E-6	-46.683703
1.548175E-6	-46.667543
1.54822E-6	-46.511113
1.548265E-6	-45.731635
1.54831E-6	-38.51089
1.548355E-6	-26.601512
1.5484E-6	-21.715979
1.548445E-6	-19.804683
1.54849E-6	-19.400581
1.548535E-6	-19.344203
1.54858E-6	-19.325572
1.548625E-6	-19.35542
1.54867E-6	-19.796387
1.548715E-6	-21.995579
1.54876E-6	-27.325936
1.548805E-6	-37.077439
1.54885E-6	-43.880644
1.548895E-6	-46.111886
1.54894E-6	-46.561977
1.548985E-6	-46.655462
1.54903E-6	-46.673596
1.549075E-6	-46.66956
1.54912E-6	-46.583677
1.549165E-6	-46.371407
1.54921E-6	-46.158259
1.549255E-6	-46.058987
1.5493E-6	-46.032777
1.549345E-6	-46.046736
1.54939E-6	-46.043242
1.549435E-6	-46.044989
1.54948E-6	-46.06074
1.549525E-6	-46.176227
1.54957E-6	-46.407338
1.549615E-6	-46.619421
1.54966E-6	-46.697892
1.549705E-6	-46.695862
1.54975E-6	-46.679657
1.549795E-6	-46.617428
1.54984E-6	-46.311555
1.549885E-6	-44.480623
1.54993E-6	-32.42604
1.549975E-6	-23.973975
1.55002E-6	-20.477889
1.550065E-6	-19.400581
1.55011E-6	-19.222688
1.550155E-6	-19.186527
1.5502E-6	-19.164974
1.550245E-6	-19.237237
1.55029E-6	-20.055069
1.550335E-6	-23.068009
1.55038E-6	-29.767475
1.550425E-6	-39.726504
1.55047E-6	-44.981195
1.550515E-6	-46.29672
1.55056E-6	-46.565914
1.550605E-6	-46.623411
1.55065E-6	-46.633402
1.550695E-6	-46.619421
1.55074E-6	-46.453154
1.550785E-6	-46.190655
1.55083E-6	-46.015392
1.550875E-6	-45.967079
1.55092E-6	-45.968795
1.550965E-6	-45.958508
1.55101E-6	-45.949953
1.551055E-6	-45.943122
1.5511E-6	-45.987718
1.551145E-6	-46.165437
1.55119E-6	-46.439741
1.551235E-6	-46.601512
1.55128E-6	-46.637404
1.551325E-6	-46.631402
1.55137E-6	-46.621416
1.551415E-6	-46.617428
1.55146E-6	-46.637404
1.551505E-6	-46.569855
1.55155E-6	-46.36388
1.551595E-6	-46.081831
1.55164E-6	-45.927791
1.551685E-6	-45.89729
1.55173E-6	-45.888856
1.551775E-6	-45.887171
1.55182E-6	-45.872036
1.551865E-6	-45.868679
1.55191E-6	-45.931193
1.551955E-6	-46.147513
1.552E-6	-46.422557
1.552045E-6	-46.560009
1.55209E-6	-46.5738
1.552135E-6	-46.575773
1.55218E-6	-46.575773
1.552225E-6	-46.5738
1.55227E-6	-46.579723
1.552315E-6	-46.501399
1.55236E-6	-46.254349
1.552405E-6	-45.991168
1.55245E-6	-45.856953
1.552495E-6	-45.828606
1.55254E-6	-45.836924
1.552585E-6	-45.823623
1.55263E-6	-45.808707
1.552675E-6	-45.81533
1.55272E-6	-45.90405
1.552765E-6	-46.13501
1.55281E-6	-46.395959
1.552855E-6	-46.507225
1.5529E-6	-46.516951
1.552945E-6	-46.5267
1.55299E-6	-46.520848
1.553035E-6	-46.530605
1.55308E-6	-46.513058
1.553125E-6	-46.418747
1.55317E-6	-46.143937
1.553215E-6	-45.89729
1.55326E-6	-45.787252
1.553305E-6	-45.774102
1.55335E-6	-45.764265
1.553395E-6	-45.736514
1.55344E-6	-45.736514
1.553485E-6	-45.751184
1.55353E-6	-45.868679
1.553575E-6	-46.115435
1.55362E-6	-46.356366
1.553665E-6	-46.462761
1.55371E-6	-46.482037
1.553755E-6	-46.493644
1.5538E-6	-46.485902
1.553845E-6	-46.493644
1.55389E-6	-46.470461
1.553935E-6	-46.343249
1.55398E-6	-46.074789
1.554025E-6	-45.831931
1.55407E-6	-45.733261
1.554115E-6	-45.700863
1.55416E-6	-45.692801
1.554205E-6	-45.684754
1.55425E-6	-45.670307
1.554295E-6	-45.700863
1.55434E-6	-45.833595
1.554385E-6	-46.092415
1.55443E-6	-46.326441
1.554475E-6	-46.428277
1.55452E-6	-46.445485
1.554565E-6	-46.455074
1.55461E-6	-46.445485
1.554655E-6	-46.437829
1.5547E-6	-46.411138
1.554745E-6	-46.27088
1.55479E-6	-46.003263
1.554835E-6	-45.764265
1.55488E-6	-45.67191
1.554925E-6	-45.638374
1.55497E-6	-45.625666
1.555015E-6	-45.62091
1.55506E-6	-45.630427
1.555105E-6	-45.659104
1.55515E-6	-45.803746
1.555195E-6	-46.067759
1.55524E-6	-46.307841
1.555285E-6	-46.38839
1.55533E-6	-46.409238
1.555375E-6	-46.418747
1.55542E-6	-46.409238
1.555465E-6	-46.401645
1.55551E-6	-46.369524
1.555555E-6	-46.221476
1.5556E-6	-45.941416
1.555645E-6	-45.710557
1.55569E-6	-45.619325
1.555735E-6	-45.597208
1.55578E-6	-45.594057
1.555825E-6	-45.586191
1.55587E-6	-45.606673
1.555915E-6	-45.636783
1.55596E-6	-45.783961
1.556005E-6	-46.067759
1.55605E-6	-46.298572
1.556095E-6	-46.38461
1.55614E-6	-46.403542
1.556185E-6	-46.397854
1.55623E-6	-46.392173
1.556275E-6	-46.38839
1.55632E-6	-46.365761
1.556365E-6	-46.206945
1.55641E-6	-45.919297
1.556455E-6	-45.678327
1.5565E-6	-45.595632
1.556545E-6	-45.578339
1.55659E-6	-45.58462
1.556635E-6	-45.592483
1.55668E-6	-45.601938
1.556725E-6	-45.622494
1.55677E-6	-45.780672
1.556815E-6	-46.080069
1.55686E-6	-46.315272
1.556905E-6	-46.40544
1.55695E-6	-46.418747
1.556995E-6	-46.40544
1.55704E-6	-46.407338
1.557085E-6	-46.40544
1.55713E-6	-46.394066
1.557175E-6	-46.226937
1.55722E-6	-45.920995
1.557265E-6	-45.697636
1.55731E-6	-45.62091
1.557355E-6	-45.608253
1.5574E-6	-45.616159
1.557445E-6	-45.628839
1.55749E-6	-45.635193
1.557535E-6	-45.663902
1.55758E-6	-45.836924
1.557625E-6	-46.140364
1.55767E-6	-46.380834
1.557715E-6	-46.460838
1.55776E-6	-46.468535
1.557805E-6	-46.466609
1.55785E-6	-46.464684
1.557895E-6	-46.472388
1.55794E-6	-46.451236
1.557985E-6	-46.281935
1.55803E-6	-45.984272
1.558075E-6	-45.75445
1.55812E-6	-45.68154
1.558165E-6	-45.687971
1.55821E-6	-45.697636
1.558255E-6	-45.710557
1.5583E-6	-45.70894
1.558345E-6	-45.736514
1.55839E-6	-45.919297
1.558435E-6	-46.223296
1.55848E-6	-46.474316
1.558525E-6	-46.552149
1.55857E-6	-46.556077
1.558615E-6	-46.560009
1.55866E-6	-46.571827
1.558705E-6	-46.579723
1.55875E-6	-46.563945
1.558795E-6	-46.3865
1.55884E-6	-46.08712
1.558885E-6	-45.878756
1.55893E-6	-45.821963
1.558975E-6	-45.826944
1.55902E-6	-45.845258
1.559065E-6	-45.84359
1.55911E-6	-45.846927
1.559155E-6	-45.885487
1.5592E-6	-46.069515
1.559245E-6	-46.38839
1.55929E-6	-46.635403
1.559335E-6	-46.701955
1.55938E-6	-46.712128
1.559425E-6	-46.718243
1.55947E-6	-46.736641
1.559515E-6	-46.753061
1.55956E-6	-46.7305
1.559605E-6	-46.563945
1.55965E-6	-46.272721
1.559695E-6	-46.069515
1.55974E-6	-46.017127
1.559785E-6	-46.011923
1.55983E-6	-46.025815
1.559875E-6	-46.032777
1.55992E-6	-46.044989
1.559965E-6	-46.090649
1.56001E-6	-46.285627
1.560055E-6	-46.595559
1.5601E-6	-46.819367
1.560145E-6	-46.90157
1.56019E-6	-46.914356
1.560235E-6	-46.931463
1.56028E-6	-46.950788
1.560325E-6	-46.974526
1.56037E-6	-46.948637
1.560415E-6	-46.786087
1.56046E-6	-46.511113
1.560505E-6	-46.307841
1.56055E-6	-46.263525
1.560595E-6	-46.265363
1.56064E-6	-46.267201
1.560685E-6	-46.276404
1.56073E-6	-46.287474
1.560775E-6	-46.346993
1.56082E-6	-46.522798
1.560865E-6	-46.821455
1.56091E-6	-47.059749
1.560955E-6	-47.135435
1.561E-6	-47.153437
1.561045E-6	-47.189666
1.56109E-6	-47.207895
1.561135E-6	-47.228494
1.56118E-6	-47.21475
1.561225E-6	-47.066374
1.56127E-6	-46.802695
1.561315E-6	-46.603498
1.56136E-6	-46.550186
1.561405E-6	-46.544302
1.56145E-6	-46.550186
1.561495E-6	-46.5738
1.56154E-6	-46.587634
1.561585E-6	-46.643415
1.56163E-6	-46.806857
1.561675E-6	-47.101882
1.56172E-6	-47.328283
1.561765E-6	-47.423214
1.56181E-6	-47.456937
1.561855E-6	-47.483618
1.5619E-6	-47.4958
1.561945E-6	-47.512913
1.56199E-6	-47.500682
1.562035E-6	-47.392133
1.56208E-6	-47.146678
1.562125E-6	-46.940041
1.56217E-6	-46.869769
1.562215E-6	-46.865546
1.56226E-6	-46.873996
1.562305E-6	-46.882461
1.56235E-6	-46.920763
1.562395E-6	-46.961562
1.56244E-6	-47.099654
1.562485E-6	-47.356545
1.56253E-6	-47.62205
1.562575E-6	-47.734001
1.56262E-6	-47.772835
1.562665E-6	-47.798919
1.56271E-6	-47.806775
1.562755E-6	-47.833064
1.5628E-6	-47.8199
1.562845E-6	-47.744323
1.56289E-6	-47.520267
1.562935E-6	-47.302536
1.56298E-6	-47.221617
1.563025E-6	-47.221617
1.56307E-6	-47.228494
1.563115E-6	-47.246886
1.56316E-6	-47.279262
1.563205E-6	-47.31422
1.56325E-6	-47.440043
1.563295E-6	-47.690404
1.56334E-6	-47.964232
1.563385E-6	-48.08549
1.56343E-6	-48.136088
1.563475E-6	-48.147412
