Wavelength (nm)	Power (dBm)
1.525E-6	-49.922522
1.525045E-6	-49.838026
1.52509E-6	-49.742846
1.525135E-6	-49.653715
1.52518E-6	-49.550685
1.525225E-6	-49.446217
1.52527E-6	-49.366666
1.525315E-6	-49.284862
1.52536E-6	-49.211808
1.525405E-6	-49.118639
1.52545E-6	-49.055289
1.525495E-6	-48.968807
1.52554E-6	-48.90759
1.525585E-6	-48.820662
1.52563E-6	-48.771291
1.525675E-6	-48.687022
1.52572E-6	-48.620133
1.525765E-6	-48.520147
1.52581E-6	-48.45576
1.525855E-6	-48.392314
1.5259E-6	-48.323873
1.525945E-6	-48.262312
1.52599E-6	-48.184422
1.526035E-6	-48.124793
1.52608E-6	-48.082696
1.526125E-6	-48.024438
1.52617E-6	-47.961515
1.526215E-6	-47.896815
1.52626E-6	-47.825161
1.526305E-6	-47.79369
1.52635E-6	-47.734001
1.526395E-6	-47.677665
1.52644E-6	-47.612014
1.526485E-6	-47.577071
1.52653E-6	-47.500682
1.526575E-6	-47.464197
1.52662E-6	-47.411234
1.526665E-6	-47.366007
1.52671E-6	-47.31422
1.526755E-6	-47.281584
1.5268E-6	-47.2262
1.526845E-6	-47.203331
1.52689E-6	-47.151183
1.526935E-6	-47.101882
1.52698E-6	-47.070797
1.527025E-6	-47.024583
1.52707E-6	-47.000571
1.527115E-6	-46.965879
1.52716E-6	-46.90157
1.527205E-6	-46.855008
1.52725E-6	-46.840297
1.527295E-6	-46.817279
1.52734E-6	-46.79646
1.527385E-6	-46.755118
1.52743E-6	-46.722325
1.527475E-6	-46.689778
1.52752E-6	-46.667543
1.527565E-6	-46.645421
1.52761E-6	-46.609463
1.527655E-6	-46.589614
1.5277E-6	-46.556077
1.527745E-6	-46.532559
1.52779E-6	-46.50334
1.527835E-6	-46.501399
1.52788E-6	-46.483969
1.527925E-6	-46.451236
1.52797E-6	-46.418747
1.528015E-6	-46.397854
1.52806E-6	-46.380834
1.528105E-6	-46.3865
1.52815E-6	-46.356366
1.528195E-6	-46.320853
1.52824E-6	-46.304131
1.528285E-6	-46.317131
1.52833E-6	-46.29672
1.528375E-6	-46.294869
1.52842E-6	-46.267201
1.528465E-6	-46.252517
1.52851E-6	-46.226937
1.528555E-6	-46.237881
1.5286E-6	-46.219657
1.528645E-6	-46.205132
1.52869E-6	-46.216021
1.528735E-6	-46.20332
1.52878E-6	-46.161846
1.528825E-6	-46.161846
1.52887E-6	-46.172627
1.528915E-6	-46.152883
1.52896E-6	-46.136794
1.529005E-6	-46.169031
1.52905E-6	-46.161846
1.529095E-6	-46.140364
1.52914E-6	-46.14215
1.529185E-6	-46.126102
1.52923E-6	-46.097716
1.529275E-6	-46.108339
1.52932E-6	-46.108339
1.529365E-6	-46.097716
1.52941E-6	-46.078309
1.529455E-6	-46.111886
1.5295E-6	-46.07303
1.529545E-6	-46.062494
1.52959E-6	-46.08712
1.529635E-6	-46.088884
1.52968E-6	-46.097716
1.529725E-6	-46.090649
1.52977E-6	-46.055483
1.529815E-6	-46.090649
1.52986E-6	-46.088884
1.529905E-6	-46.092415
1.52995E-6	-46.057235
1.529995E-6	-46.081831
1.53004E-6	-46.057235
1.530085E-6	-46.085356
1.53013E-6	-46.085356
1.530175E-6	-46.080069
1.53022E-6	-46.074789
1.530265E-6	-46.036263
1.53031E-6	-46.057235
1.530355E-6	-46.101254
1.5304E-6	-46.08712
1.530445E-6	-46.080069
1.53049E-6	-46.050233
1.530535E-6	-46.066003
1.53058E-6	-46.097716
1.530625E-6	-46.104795
1.53067E-6	-46.094181
1.530715E-6	-46.080069
1.53076E-6	-46.081831
1.530805E-6	-46.103025
1.53085E-6	-46.140364
1.530895E-6	-46.126102
1.53094E-6	-46.127882
1.530985E-6	-46.126102
1.53103E-6	-46.140364
1.531075E-6	-46.136794
1.53112E-6	-46.163641
1.531165E-6	-46.147513
1.53121E-6	-46.138579
1.531255E-6	-46.156466
1.5313E-6	-46.167233
1.531345E-6	-46.187044
1.53139E-6	-46.187044
1.531435E-6	-46.190655
1.53148E-6	-46.236056
1.531525E-6	-46.223296
1.53157E-6	-46.225116
1.531615E-6	-46.245193
1.53166E-6	-46.259853
1.531705E-6	-46.265363
1.53175E-6	-46.272721
1.531795E-6	-46.313413
1.53184E-6	-46.29117
1.531885E-6	-46.322715
1.53193E-6	-46.343249
1.531975E-6	-46.348866
1.53202E-6	-46.337639
1.532065E-6	-46.358244
1.53211E-6	-46.413039
1.532155E-6	-46.407338
1.5322E-6	-46.424463
1.532245E-6	-46.420652
1.53229E-6	-46.466609
1.532335E-6	-46.443569
1.53238E-6	-46.509168
1.532425E-6	-46.476245
1.53247E-6	-46.542343
1.532515E-6	-46.528652
1.53256E-6	-46.532559
1.532605E-6	-46.554113
1.53265E-6	-46.593576
1.532695E-6	-46.603498
1.53274E-6	-46.627405
1.532785E-6	-46.651443
1.53283E-6	-46.647427
1.532875E-6	-46.689778
1.53292E-6	-46.742791
1.532965E-6	-46.724367
1.53301E-6	-46.736641
1.533055E-6	-46.775739
1.5331E-6	-46.79646
1.533145E-6	-46.834007
1.53319E-6	-46.836102
1.533235E-6	-46.863437
1.53328E-6	-46.888822
1.533325E-6	-46.940041
1.53337E-6	-46.93575
1.533415E-6	-46.976691
1.53346E-6	-46.987529
1.533505E-6	-47.002748
1.53355E-6	-47.015836
1.533595E-6	-47.068585
1.53364E-6	-47.108572
1.533685E-6	-47.110804
1.53373E-6	-47.119745
1.533775E-6	-47.166988
1.53382E-6	-47.198771
1.533865E-6	-47.249191
1.53391E-6	-47.249191
1.533955E-6	-47.288557
1.534E-6	-47.316561
1.534045E-6	-47.318903
1.53409E-6	-47.380238
1.534135E-6	-47.406451
1.53418E-6	-47.447275
1.534225E-6	-47.47147
1.53427E-6	-47.430418
1.534315E-6	-47.493361
1.53436E-6	-47.527635
1.534405E-6	-47.557229
1.53445E-6	-47.56962
1.534495E-6	-47.592012
1.53454E-6	-47.642191
1.534585E-6	-47.685304
1.53463E-6	-47.705742
1.534675E-6	-47.715996
1.53472E-6	-47.770236
1.534765E-6	-47.791078
1.53481E-6	-47.791078
1.534855E-6	-47.838341
1.5349E-6	-47.87546
1.534945E-6	-47.910215
1.53499E-6	-47.923656
1.535035E-6	-47.953375
1.53508E-6	-47.983298
1.535125E-6	-48.029953
1.53517E-6	-48.041003
1.535215E-6	-48.08549
1.53526E-6	-48.107905
1.535305E-6	-48.107905
1.53535E-6	-48.175853
1.535395E-6	-48.184422
1.53544E-6	-48.201611
1.535485E-6	-48.241984
1.53553E-6	-48.273971
1.535575E-6	-48.300318
1.53562E-6	-48.323873
1.535665E-6	-48.347557
1.53571E-6	-48.353498
1.535755E-6	-48.374356
1.5358E-6	-48.407337
1.535845E-6	-48.422411
1.53589E-6	-48.458805
1.535935E-6	-48.489367
1.53598E-6	-48.517059
1.536025E-6	-48.544928
1.53607E-6	-48.535619
1.536115E-6	-48.598063
1.53616E-6	-48.598063
1.536205E-6	-48.604357
1.53625E-6	-48.632794
1.536295E-6	-48.645493
1.53634E-6	-48.687022
1.536385E-6	-48.687022
1.53643E-6	-48.761484
1.536475E-6	-48.748442
1.53652E-6	-48.722475
1.536565E-6	-48.754958
1.53661E-6	-48.758219
1.536655E-6	-48.78112
1.5367E-6	-48.820662
1.536745E-6	-48.87395
1.53679E-6	-48.817353
1.536835E-6	-48.847224
1.53688E-6	-48.887375
1.536925E-6	-48.924509
1.53697E-6	-48.890738
1.537015E-6	-48.910969
1.53706E-6	-48.92112
1.537105E-6	-48.951716
1.53715E-6	-48.968807
1.537195E-6	-49.003194
1.53724E-6	-48.979095
1.537285E-6	-48.975663
1.53733E-6	-48.992849
1.537375E-6	-49.006647
1.53742E-6	-48.999743
1.537465E-6	-49.027427
1.53751E-6	-49.027427
1.537555E-6	-49.037854
1.5376E-6	-49.093893
1.537645E-6	-49.08333
1.53769E-6	-49.100949
1.537735E-6	-49.108016
1.53778E-6	-49.086848
1.537825E-6	-49.08333
1.53787E-6	-49.125735
1.537915E-6	-49.129288
1.53796E-6	-49.104481
1.538005E-6	-49.100949
1.53805E-6	-49.132843
1.538095E-6	-49.115095
1.53814E-6	-49.115095
1.538185E-6	-49.139963
1.53823E-6	-49.164974
1.538275E-6	-49.154237
1.53832E-6	-49.115095
1.538365E-6	-49.129288
1.53841E-6	-49.147094
1.538455E-6	-49.129288
1.5385E-6	-49.168559
1.538545E-6	-49.143527
1.53859E-6	-49.175737
1.538635E-6	-49.164974
1.53868E-6	-49.19013
1.538725E-6	-49.208188
1.53877E-6	-49.154237
1.538815E-6	-49.132843
1.53886E-6	-49.154237
1.538905E-6	-49.186527
1.53895E-6	-49.168559
1.538995E-6	-49.154237
1.53904E-6	-49.186527
1.539085E-6	-49.186527
1.53913E-6	-49.150664
1.539175E-6	-49.175737
1.53922E-6	-49.157813
1.539265E-6	-49.154237
1.53931E-6	-49.147094
1.539355E-6	-49.143527
1.5394E-6	-49.154237
1.539445E-6	-49.168559
1.53949E-6	-49.136402
1.539535E-6	-49.147094
1.53958E-6	-49.118639
1.539625E-6	-49.100949
1.53967E-6	-49.108016
1.539715E-6	-49.125735
1.53976E-6	-49.129288
1.539805E-6	-49.108016
1.53985E-6	-49.100949
1.539895E-6	-49.08333
1.53994E-6	-49.139963
1.539985E-6	-49.079815
1.54003E-6	-49.104481
1.540075E-6	-49.108016
1.54012E-6	-49.072794
1.540165E-6	-49.086848
1.54021E-6	-49.097419
1.540255E-6	-49.079815
1.5403E-6	-49.086848
1.540345E-6	-49.069287
1.54039E-6	-49.037854
1.540435E-6	-49.041335
1.54048E-6	-49.055289
1.540525E-6	-49.037854
1.54057E-6	-49.037854
1.540615E-6	-49.017025
1.54066E-6	-49.04482
1.540705E-6	-49.010104
1.54075E-6	-49.034376
1.540795E-6	-49.017025
1.54084E-6	-49.006647
1.540885E-6	-49.017025
1.54093E-6	-49.006647
1.540975E-6	-49.006647
1.54102E-6	-49.027427
1.541065E-6	-48.982529
1.54111E-6	-48.968807
1.541155E-6	-48.979095
1.5412E-6	-48.972234
1.541245E-6	-49.006647
1.54129E-6	-48.968807
1.541335E-6	-48.931295
1.54138E-6	-48.934691
1.541425E-6	-48.931295
1.54147E-6	-48.958544
1.541515E-6	-48.948306
1.54156E-6	-48.944898
1.541605E-6	-48.938091
1.54165E-6	-48.910969
1.541695E-6	-48.924509
1.54174E-6	-48.934691
1.541785E-6	-48.924509
1.54183E-6	-48.90759
1.541875E-6	-48.897471
1.54192E-6	-48.900841
1.541965E-6	-48.900841
1.54201E-6	-48.890738
1.542055E-6	-48.85389
1.5421E-6	-48.880657
1.542145E-6	-48.847224
1.54219E-6	-48.877302
1.542235E-6	-48.840568
1.54228E-6	-48.823973
1.542325E-6	-48.867253
1.54237E-6	-48.860566
1.542415E-6	-48.830604
1.54246E-6	-48.830604
1.542505E-6	-48.840568
1.54255E-6	-48.843895
1.542595E-6	-48.814046
1.54264E-6	-48.810742
1.542685E-6	-48.823973
1.54273E-6	-48.807441
1.542775E-6	-48.850556
1.54282E-6	-48.810742
1.542865E-6	-48.810742
1.54291E-6	-48.78112
1.542955E-6	-48.807441
1.543E-6	-48.807441
1.543045E-6	-48.774565
1.54309E-6	-48.777841
1.543135E-6	-48.787685
1.54318E-6	-48.790972
1.543225E-6	-48.78112
1.54327E-6	-48.797552
1.543315E-6	-48.78112
1.54336E-6	-48.777841
1.543405E-6	-48.774565
1.54345E-6	-48.790972
1.543495E-6	-48.774565
1.54354E-6	-48.78112
1.543585E-6	-48.76475
1.54363E-6	-48.797552
1.543675E-6	-48.774565
1.54372E-6	-48.745187
1.543765E-6	-48.777841
1.54381E-6	-48.751699
1.543855E-6	-48.751699
1.5439E-6	-48.751699
1.543945E-6	-48.748442
1.54399E-6	-48.774565
1.544035E-6	-48.810742
1.54408E-6	-48.797552
1.544125E-6	-48.797552
1.54417E-6	-48.784402
1.544215E-6	-48.774565
1.54426E-6	-48.774565
1.544305E-6	-48.774565
1.54435E-6	-48.814046
1.544395E-6	-48.751699
1.54444E-6	-48.777841
1.544485E-6	-48.748442
1.54453E-6	-48.771291
1.544575E-6	-48.777841
1.54462E-6	-48.758219
1.544665E-6	-48.76475
1.54471E-6	-48.774565
1.544755E-6	-48.794261
1.5448E-6	-48.797552
1.544845E-6	-48.794261
1.54489E-6	-48.810742
1.544935E-6	-48.777841
1.54498E-6	-48.794261
1.545025E-6	-48.78112
1.54507E-6	-48.784402
1.545115E-6	-48.31208
1.54516E-6	-43.911532
1.545205E-6	-39.617774
1.54525E-6	-37.592012
1.545295E-6	-37.113037
1.54534E-6	-37.068585
1.545385E-6	-37.004927
1.54543E-6	-37.028963
1.545475E-6	-37.377863
1.54552E-6	-39.182927
1.545565E-6	-43.235808
1.54561E-6	-47.822529
1.545655E-6	-48.741935
1.5457E-6	-48.827287
1.545745E-6	-48.797552
1.54579E-6	-48.814046
1.545835E-6	-48.833923
1.54588E-6	-48.840568
1.545925E-6	-48.850556
1.54597E-6	-48.833923
1.546015E-6	-48.823973
1.54606E-6	-48.837244
1.546105E-6	-48.830604
1.54615E-6	-48.843895
1.546195E-6	-48.830604
1.54624E-6	-48.797552
1.546285E-6	-48.833923
1.54633E-6	-48.860566
1.546375E-6	-48.877302
1.54642E-6	-48.877302
1.546465E-6	-48.860566
1.54651E-6	-48.840568
1.546555E-6	-48.877302
1.5466E-6	-48.897471
1.546645E-6	-48.890738
1.54669E-6	-48.887375
1.546735E-6	-48.904215
1.54678E-6	-48.857227
1.546825E-6	-48.8706
1.54687E-6	-48.897471
1.546915E-6	-48.92112
1.54696E-6	-48.890738
1.547005E-6	-48.884015
1.54705E-6	-48.887375
1.547095E-6	-48.900841
1.54714E-6	-48.910969
1.547185E-6	-48.904215
1.54723E-6	-48.924509
1.547275E-6	-48.934691
1.54732E-6	-48.9279
1.547365E-6	-48.924509
1.54741E-6	-48.917733
1.547455E-6	-48.975663
1.5475E-6	-48.944898
1.547545E-6	-48.941493
1.54759E-6	-48.934691
1.547635E-6	-48.955129
1.54768E-6	-48.9279
1.547725E-6	-48.948306
1.54777E-6	-48.90759
1.547815E-6	-48.917733
1.54786E-6	-48.955129
1.547905E-6	-48.961963
1.54795E-6	-48.955129
1.547995E-6	-48.975663
1.54804E-6	-48.948306
1.548085E-6	-48.982529
1.54813E-6	-48.961963
1.548175E-6	-48.996295
1.54822E-6	-48.965384
1.548265E-6	-48.975663
1.54831E-6	-48.958544
1.548355E-6	-48.975663
1.5484E-6	-48.955129
1.548445E-6	-48.982529
1.54849E-6	-48.972234
1.548535E-6	-48.972234
1.54858E-6	-48.951716
1.548625E-6	-48.979095
1.54867E-6	-48.972234
1.548715E-6	-48.992849
1.54876E-6	-48.968807
1.548805E-6	-48.989406
1.54885E-6	-49.013563
1.548895E-6	-49.010104
1.54894E-6	-49.0309
1.548985E-6	-49.034376
1.54903E-6	-48.992849
1.549075E-6	-48.999743
1.54912E-6	-49.010104
1.549165E-6	-49.003194
1.54921E-6	-48.996295
1.549255E-6	-48.979095
1.5493E-6	-48.982529
1.549345E-6	-48.989406
1.54939E-6	-48.982529
1.549435E-6	-49.003194
1.54948E-6	-49.006647
1.549525E-6	-49.034376
1.54957E-6	-48.989406
1.549615E-6	-49.010104
1.54966E-6	-48.989406
1.549705E-6	-49.034376
1.54975E-6	-49.013563
1.549795E-6	-49.020489
1.54984E-6	-49.023957
1.549885E-6	-48.934691
1.54993E-6	-46.659486
1.549975E-6	-41.013297
1.55002E-6	-37.772835
1.550065E-6	-36.649435
1.55011E-6	-36.409238
1.550155E-6	-36.377061
1.5502E-6	-36.390281
1.550245E-6	-36.399749
1.55029E-6	-37.164726
1.550335E-6	-39.796387
1.55038E-6	-45.023794
1.550425E-6	-48.576105
1.55047E-6	-48.968807
1.550515E-6	-49.003194
1.55056E-6	-48.985966
1.550605E-6	-48.999743
1.55065E-6	-49.0309
1.550695E-6	-49.04482
1.55074E-6	-49.027427
1.550785E-6	-48.996295
1.55083E-6	-49.003194
1.550875E-6	-48.968807
1.55092E-6	-48.989406
1.550965E-6	-48.999743
1.55101E-6	-48.982529
1.551055E-6	-49.006647
1.5511E-6	-48.985966
1.551145E-6	-48.961963
1.55119E-6	-48.992849
1.551235E-6	-49.006647
1.55128E-6	-49.013563
1.551325E-6	-49.010104
1.55137E-6	-49.010104
1.551415E-6	-49.003194
1.55146E-6	-49.010104
1.551505E-6	-49.017025
1.55155E-6	-48.985966
1.551595E-6	-48.996295
1.55164E-6	-48.961963
1.551685E-6	-48.992849
1.55173E-6	-48.996295
1.551775E-6	-48.985966
1.55182E-6	-48.975663
1.551865E-6	-48.961963
1.55191E-6	-48.944898
1.551955E-6	-48.982529
1.552E-6	-48.985966
1.552045E-6	-48.999743
1.55209E-6	-49.017025
1.552135E-6	-48.951716
1.55218E-6	-48.982529
1.552225E-6	-48.989406
1.55227E-6	-48.989406
1.552315E-6	-48.972234
1.55236E-6	-48.941493
1.552405E-6	-48.941493
1.55245E-6	-48.941493
1.552495E-6	-48.951716
1.55254E-6	-48.951716
1.552585E-6	-48.951716
1.55263E-6	-48.941493
1.552675E-6	-48.91435
1.55272E-6	-48.941493
1.552765E-6	-48.965384
1.55281E-6	-48.968807
1.552855E-6	-48.951716
1.5529E-6	-48.955129
1.552945E-6	-48.938091
1.55299E-6	-48.982529
1.553035E-6	-48.975663
1.55308E-6	-48.972234
1.553125E-6	-48.972234
1.55317E-6	-48.951716
1.553215E-6	-48.938091
1.55326E-6	-48.948306
1.553305E-6	-48.924509
1.55335E-6	-48.924509
1.553395E-6	-48.904215
1.55344E-6	-48.924509
1.553485E-6	-48.917733
1.55353E-6	-48.934691
1.553575E-6	-48.944898
1.55362E-6	-48.958544
1.553665E-6	-48.955129
1.55371E-6	-48.9279
1.553755E-6	-48.9279
1.5538E-6	-48.948306
1.553845E-6	-48.975663
1.55389E-6	-48.975663
1.553935E-6	-48.975663
1.55398E-6	-48.941493
1.554025E-6	-48.910969
1.55407E-6	-48.92112
1.554115E-6	-48.910969
1.55416E-6	-48.92112
1.554205E-6	-48.917733
1.55425E-6	-48.890738
1.554295E-6	-48.917733
1.55434E-6	-48.961963
1.554385E-6	-48.931295
1.55443E-6	-48.948306
1.554475E-6	-48.917733
1.55452E-6	-48.931295
1.554565E-6	-48.958544
1.55461E-6	-48.961963
1.554655E-6	-48.938091
1.5547E-6	-48.92112
1.554745E-6	-48.924509
1.55479E-6	-48.917733
1.554835E-6	-48.910969
1.55488E-6	-48.904215
1.554925E-6	-48.897471
1.55497E-6	-48.904215
1.555015E-6	-48.880657
1.55506E-6	-48.887375
1.555105E-6	-48.887375
1.55515E-6	-48.938091
1.555195E-6	-48.924509
1.55524E-6	-48.910969
1.555285E-6	-48.90759
1.55533E-6	-48.917733
1.555375E-6	-48.944898
1.55542E-6	-48.934691
1.555465E-6	-48.90759
1.55551E-6	-48.887375
1.555555E-6	-48.900841
1.5556E-6	-48.890738
1.555645E-6	-48.917733
1.55569E-6	-48.884015
1.555735E-6	-48.900841
1.55578E-6	-48.877302
1.555825E-6	-48.887375
1.55587E-6	-48.894103
1.555915E-6	-48.910969
1.55596E-6	-48.897471
1.556005E-6	-48.897471
1.55605E-6	-48.934691
1.556095E-6	-48.9279
1.55614E-6	-48.931295
1.556185E-6	-48.924509
1.55623E-6	-48.91435
1.556275E-6	-48.91435
1.55632E-6	-48.910969
1.556365E-6	-48.90759
1.55641E-6	-48.90759
1.556455E-6	-48.894103
1.5565E-6	-48.894103
1.556545E-6	-48.894103
1.55659E-6	-48.904215
1.556635E-6	-48.904215
1.55668E-6	-48.894103
1.556725E-6	-48.910969
1.55677E-6	-48.887375
1.556815E-6	-48.917733
1.55686E-6	-48.917733
1.556905E-6	-48.9279
1.55695E-6	-48.941493
1.556995E-6	-48.9279
1.55704E-6	-48.951716
1.557085E-6	-48.931295
1.55713E-6	-48.9279
1.557175E-6	-48.948306
1.55722E-6	-48.951716
1.557265E-6	-48.948306
1.55731E-6	-48.941493
1.557355E-6	-48.917733
1.5574E-6	-48.944898
1.557445E-6	-48.941493
1.55749E-6	-48.944898
1.557535E-6	-48.931295
1.55758E-6	-48.924509
1.557625E-6	-48.951716
1.55767E-6	-48.979095
1.557715E-6	-48.996295
1.55776E-6	-48.992849
1.557805E-6	-48.992849
1.55785E-6	-48.992849
1.557895E-6	-49.010104
1.55794E-6	-48.985966
1.557985E-6	-49.006647
1.55803E-6	-49.006647
1.558075E-6	-48.968807
1.55812E-6	-48.958544
1.558165E-6	-48.989406
1.55821E-6	-48.975663
1.558255E-6	-48.975663
1.5583E-6	-49.023957
1.558345E-6	-49.013563
1.55839E-6	-49.006647
1.558435E-6	-49.04482
1.55848E-6	-49.04482
1.558525E-6	-49.079815
1.55857E-6	-49.072794
1.558615E-6	-49.055289
1.55866E-6	-49.086848
1.558705E-6	-49.058784
1.55875E-6	-49.076303
1.558795E-6	-49.093893
1.55884E-6	-49.069287
1.558885E-6	-49.055289
1.55893E-6	-49.079815
1.558975E-6	-49.069287
1.55902E-6	-49.090369
1.559065E-6	-49.069287
1.55911E-6	-49.122186
1.559155E-6	-49.086848
1.5592E-6	-49.104481
1.559245E-6	-49.139963
1.55929E-6	-49.164974
1.559335E-6	-49.175737
1.55938E-6	-49.164974
1.559425E-6	-49.157813
1.55947E-6	-49.182927
1.559515E-6	-49.200955
1.55956E-6	-49.211808
1.559605E-6	-49.211808
1.55965E-6	-49.200955
1.559695E-6	-49.175737
1.55974E-6	-49.229957
1.559785E-6	-49.226321
1.55983E-6	-49.266483
1.559875E-6	-49.273825
1.55992E-6	-49.262816
1.559965E-6	-49.251836
1.56001E-6	-49.270153
1.560055E-6	-49.310724
1.5601E-6	-49.310724
1.560145E-6	-49.325572
1.56019E-6	-49.325572
1.560235E-6	-49.336741
1.56028E-6	-49.370422
1.560325E-6	-49.389247
1.56037E-6	-49.381707
1.560415E-6	-49.381707
1.56046E-6	-49.362914
1.560505E-6	-49.37418
1.56055E-6	-49.37418
1.560595E-6	-49.393022
1.56064E-6	-49.385475
1.560685E-6	-49.393022
1.56073E-6	-49.404366
1.560775E-6	-49.419538
1.56082E-6	-49.438577
1.560865E-6	-49.476909
1.56091E-6	-49.496202
1.560955E-6	-49.500071
1.561E-6	-49.500071
1.561045E-6	-49.511699
1.56109E-6	-49.519468
1.561135E-6	-49.54677
1.56118E-6	-49.538952
1.561225E-6	-49.566377
1.56127E-6	-49.542859
1.561315E-6	-49.535048
1.56136E-6	-49.558524
1.561405E-6	-49.574245
1.56145E-6	-49.562449
1.561495E-6	-49.562449
1.56154E-6	-49.586073
1.561585E-6	-49.605859
1.56163E-6	-49.653715
1.561675E-6	-49.657727
1.56172E-6	-49.661743
1.561765E-6	-49.665762
1.56181E-6	-49.673812
1.561855E-6	-49.689957
1.5619E-6	-49.706162
1.561945E-6	-49.722428
1.56199E-6	-49.722428
1.562035E-6	-49.746941
1.56208E-6	-49.734667
1.562125E-6	-49.742846
1.56217E-6	-49.75104
1.562215E-6	-49.746941
1.56226E-6	-49.75104
1.562305E-6	-49.771594
1.56235E-6	-49.783973
1.562395E-6	-49.783973
1.56244E-6	-49.825493
1.562485E-6	-49.838026
1.56253E-6	-49.850597
1.562575E-6	-49.854795
1.56262E-6	-49.888526
1.562665E-6	-49.905491
1.56271E-6	-49.93534
1.562755E-6	-49.918258
1.5628E-6	-49.931063
1.562845E-6	-49.918258
1.56289E-6	-49.918258
1.562935E-6	-49.918258
1.56298E-6	-49.93534
1.563025E-6	-49.93534
1.56307E-6	-49.948195
1.563115E-6	-49.93534
1.56316E-6	-49.965395
1.563205E-6	-49.995659
1.56325E-6	-50.01392
1.563295E-6	-50.023515
1.56334E-6	-50.040578
1.563385E-6	-50.049794
1.56343E-6	-50.090842
