Wavelength (nm)	Power (dBm)
1.525E-6	-45.061239
1.525045E-6	-44.887853
1.52509E-6	-44.7379
1.525135E-6	-44.595454
1.52518E-6	-44.447846
1.525225E-6	-44.286406
1.52527E-6	-44.104972
1.525315E-6	-43.970723
1.52536E-6	-43.825803
1.525405E-6	-43.718155
1.52545E-6	-43.54676
1.525495E-6	-43.393242
1.52554E-6	-43.213906
1.525585E-6	-43.116692
1.52563E-6	-42.963648
1.525675E-6	-42.829123
1.52572E-6	-42.713216
1.525765E-6	-42.572749
1.52581E-6	-42.462638
1.525855E-6	-42.340336
1.5259E-6	-42.244624
1.525945E-6	-42.173841
1.52599E-6	-42.068385
1.526035E-6	-41.953155
1.52608E-6	-41.813123
1.526125E-6	-41.745739
1.52617E-6	-41.63486
1.526215E-6	-41.501508
1.52626E-6	-41.403814
1.526305E-6	-41.273194
1.52635E-6	-41.165089
1.526395E-6	-41.046327
1.52644E-6	-40.930727
1.526485E-6	-40.818648
1.52653E-6	-40.739664
1.526575E-6	-40.629337
1.52662E-6	-40.579423
1.526665E-6	-40.498787
1.52671E-6	-40.408632
1.526755E-6	-40.369208
1.5268E-6	-40.276583
1.526845E-6	-40.208615
1.52689E-6	-40.132283
1.526935E-6	-40.03007
1.52698E-6	-39.948195
1.527025E-6	-39.901244
1.52707E-6	-39.746941
1.527115E-6	-39.677843
1.52716E-6	-39.566377
1.527205E-6	-39.500071
1.52725E-6	-39.423339
1.527295E-6	-39.370422
1.52734E-6	-39.318141
1.527385E-6	-39.266483
1.52743E-6	-39.215432
1.527475E-6	-39.255493
1.52752E-6	-39.277501
1.527565E-6	-39.179331
1.52761E-6	-39.139963
1.527655E-6	-39.111554
1.5277E-6	-39.065783
1.527745E-6	-39.017025
1.52779E-6	-38.992849
1.527835E-6	-38.92112
1.52788E-6	-38.814046
1.527925E-6	-38.754958
1.52797E-6	-38.732194
1.528015E-6	-38.677403
1.52806E-6	-38.687022
1.528105E-6	-38.664611
1.52815E-6	-38.601209
1.528195E-6	-38.664611
1.52824E-6	-38.658229
1.528285E-6	-38.703101
1.52833E-6	-38.774565
1.528375E-6	-38.754958
1.52842E-6	-38.693447
1.528465E-6	-38.735439
1.52851E-6	-38.712777
1.528555E-6	-38.725712
1.5286E-6	-38.687022
1.528645E-6	-38.610661
1.52869E-6	-38.563608
1.528735E-6	-38.520147
1.52878E-6	-38.53252
1.528825E-6	-38.566729
1.52887E-6	-38.560489
1.528915E-6	-38.579235
1.52896E-6	-38.572978
1.529005E-6	-38.680607
1.52905E-6	-38.732194
1.529095E-6	-38.810742
1.52914E-6	-38.790972
1.529185E-6	-38.827287
1.52923E-6	-38.810742
1.529275E-6	-38.827287
1.52932E-6	-38.850556
1.529365E-6	-38.860566
1.52941E-6	-38.810742
1.529455E-6	-38.784402
1.5295E-6	-38.71924
1.529545E-6	-38.751699
1.52959E-6	-38.787685
1.529635E-6	-38.823973
1.52968E-6	-38.85389
1.529725E-6	-38.827287
1.52977E-6	-38.91435
1.529815E-6	-39.006647
1.52986E-6	-39.100949
1.529905E-6	-39.115095
1.52995E-6	-39.136402
1.529995E-6	-39.186527
1.53004E-6	-39.19013
1.530085E-6	-39.200955
1.53013E-6	-39.208188
1.530175E-6	-39.136402
1.53022E-6	-39.076303
1.530265E-6	-39.048306
1.53031E-6	-39.041335
1.530355E-6	-39.041335
1.5304E-6	-39.097419
1.530445E-6	-39.122186
1.53049E-6	-39.104481
1.530535E-6	-39.161392
1.53058E-6	-39.266483
1.530625E-6	-39.385475
1.53067E-6	-39.430951
1.530715E-6	-39.393022
1.53076E-6	-39.419538
1.530805E-6	-39.446217
1.53085E-6	-39.480761
1.530895E-6	-39.50782
1.53094E-6	-39.434763
1.530985E-6	-39.359166
1.53103E-6	-39.288547
1.531075E-6	-39.347939
1.53112E-6	-39.336741
1.531165E-6	-39.381707
1.53121E-6	-39.35542
1.531255E-6	-39.359166
1.5313E-6	-39.370422
1.531345E-6	-39.500071
1.53139E-6	-39.633711
1.531435E-6	-39.645703
1.53148E-6	-39.677843
1.531525E-6	-39.649707
1.53157E-6	-39.657727
1.531615E-6	-39.681877
1.53166E-6	-39.710223
1.531705E-6	-39.677843
1.53175E-6	-39.601894
1.531795E-6	-39.523358
1.53184E-6	-39.50782
1.531885E-6	-39.531148
1.53193E-6	-39.519468
1.531975E-6	-39.550685
1.53202E-6	-39.515582
1.532065E-6	-39.578184
1.53211E-6	-39.653715
1.532155E-6	-39.738755
1.5322E-6	-39.817157
1.532245E-6	-39.817157
1.53229E-6	-39.800533
1.532335E-6	-39.825493
1.53238E-6	-39.858997
1.532425E-6	-39.867413
1.53247E-6	-39.833845
1.532515E-6	-39.800533
1.53256E-6	-39.738755
1.532605E-6	-39.698052
1.53265E-6	-39.673812
1.532695E-6	-39.673812
1.53274E-6	-39.669786
1.532785E-6	-39.689957
1.53283E-6	-39.710223
1.532875E-6	-39.718356
1.53292E-6	-39.858997
1.532965E-6	-39.918258
1.53301E-6	-39.931063
1.533055E-6	-39.952488
1.5331E-6	-39.961088
1.533145E-6	-39.982663
1.53319E-6	-39.97402
1.533235E-6	-39.982663
1.53328E-6	-39.93534
1.533325E-6	-39.858997
1.53337E-6	-39.838026
1.533415E-6	-39.833845
1.53346E-6	-39.812995
1.533505E-6	-39.821323
1.53355E-6	-39.817157
1.533595E-6	-39.854795
1.53364E-6	-39.867413
1.533685E-6	-39.913998
1.53373E-6	-40.029633
1.533775E-6	-40.047159
1.53382E-6	-40.094392
1.533865E-6	-40.089956
1.53391E-6	-40.0975
1.533955E-6	-40.096611
1.534E-6	-40.108172
1.534045E-6	-40.078885
1.53409E-6	-40.012613
1.534135E-6	-40.00391
1.53418E-6	-39.986991
1.534225E-6	-39.995659
1.53427E-6	-39.93534
1.534315E-6	-39.943906
1.53436E-6	-39.978339
1.534405E-6	-39.982663
1.53445E-6	-39.995659
1.534495E-6	-40.089956
1.53454E-6	-40.110845
1.534585E-6	-40.163286
1.53463E-6	-40.174574
1.534675E-6	-40.180908
1.53472E-6	-40.204061
1.534765E-6	-40.17367
1.53481E-6	-40.173218
1.534855E-6	-40.166895
1.5349E-6	-40.091729
1.534945E-6	-40.067843
1.53499E-6	-40.055949
1.535035E-6	-40.029633
1.53508E-6	-40.027884
1.535125E-6	-40.042332
1.53517E-6	-40.081097
1.535215E-6	-40.07579
1.53526E-6	-40.136762
1.535305E-6	-40.17774
1.53535E-6	-40.227338
1.535395E-6	-40.233291
1.53544E-6	-40.277972
1.535485E-6	-40.242466
1.53553E-6	-40.234666
1.535575E-6	-40.223678
1.53562E-6	-40.209071
1.535665E-6	-40.204061
1.53571E-6	-40.141246
1.535755E-6	-40.12155
1.5358E-6	-40.104612
1.535845E-6	-40.097944
1.53589E-6	-40.139004
1.535935E-6	-40.109063
1.53598E-6	-40.126913
1.536025E-6	-40.17367
1.53607E-6	-40.194058
1.536115E-6	-40.233291
1.53616E-6	-40.269184
1.536205E-6	-40.257647
1.53625E-6	-40.253502
1.536295E-6	-40.227796
1.53634E-6	-40.255804
1.536385E-6	-40.235125
1.53643E-6	-40.215912
1.536475E-6	-40.177288
1.53652E-6	-40.124231
1.536565E-6	-40.103722
1.53661E-6	-40.132283
1.536655E-6	-40.123784
1.5367E-6	-40.144837
1.536745E-6	-40.108172
1.53679E-6	-40.106837
1.536835E-6	-40.155177
1.53688E-6	-40.189519
1.536925E-6	-40.225508
1.53697E-6	-40.24982
1.537015E-6	-40.191788
1.53706E-6	-40.199966
1.537105E-6	-40.211806
1.53715E-6	-40.200876
1.537195E-6	-40.204061
1.53724E-6	-40.154277
1.537285E-6	-40.102833
1.53733E-6	-40.080655
1.537375E-6	-40.063434
1.53742E-6	-40.081982
1.537465E-6	-40.077116
1.53751E-6	-40.076232
1.537555E-6	-40.051112
1.5376E-6	-40.080212
1.537645E-6	-40.156527
1.53769E-6	-40.18272
1.537735E-6	-40.191788
1.53778E-6	-40.174122
1.537825E-6	-40.186345
1.53787E-6	-40.168249
1.537915E-6	-40.176835
1.53796E-6	-40.154277
1.538005E-6	-40.126466
1.53805E-6	-40.092617
1.538095E-6	-40.057709
1.53814E-6	-40.049794
1.538185E-6	-40.068725
1.53823E-6	-40.056828
1.538275E-6	-40.061671
1.53832E-6	-40.036635
1.538365E-6	-40.050233
1.53841E-6	-40.118425
1.538455E-6	-40.118425
1.5385E-6	-40.17367
1.538545E-6	-40.151578
1.53859E-6	-40.126913
1.538635E-6	-40.184985
1.53868E-6	-40.152477
1.538725E-6	-40.169152
1.53877E-6	-40.14349
1.538815E-6	-40.101943
1.53886E-6	-40.067843
1.538905E-6	-40.052431
1.53895E-6	-40.074465
1.538995E-6	-40.06035
1.53904E-6	-40.054629
1.539085E-6	-40.049794
1.53913E-6	-40.074907
1.539175E-6	-40.07049
1.53922E-6	-40.134522
1.539265E-6	-40.172314
1.53931E-6	-40.190881
1.539355E-6	-40.160131
1.5394E-6	-40.188612
1.539445E-6	-40.206793
1.53949E-6	-40.197239
1.539535E-6	-40.228711
1.53958E-6	-40.160581
1.539625E-6	-40.125125
1.53967E-6	-40.106392
1.539715E-6	-40.110845
1.53976E-6	-40.085524
1.539805E-6	-40.092617
1.53985E-6	-40.114856
1.539895E-6	-40.088182
1.53994E-6	-40.125125
1.539985E-6	-40.167798
1.54003E-6	-40.191334
1.540075E-6	-40.228711
1.54012E-6	-40.214999
1.540165E-6	-40.245222
1.54021E-6	-40.254883
1.540255E-6	-40.245682
1.5403E-6	-40.241548
1.540345E-6	-40.242007
1.54039E-6	-40.205427
1.540435E-6	-40.188612
1.54048E-6	-40.172314
1.540525E-6	-40.163737
1.54057E-6	-40.134074
1.540615E-6	-40.150678
1.54066E-6	-40.151128
1.540705E-6	-40.173218
1.54075E-6	-40.192242
1.540795E-6	-40.256265
1.54084E-6	-40.295601
1.540885E-6	-40.318908
1.54093E-6	-40.336705
1.540975E-6	-40.324052
1.54102E-6	-40.364955
1.541065E-6	-40.329203
1.54111E-6	-40.346101
1.541155E-6	-40.30258
1.5412E-6	-40.256726
1.541245E-6	-40.227338
1.54129E-6	-40.224136
1.541335E-6	-40.207704
1.54138E-6	-40.214543
1.541425E-6	-40.234208
1.54147E-6	-40.234208
1.541515E-6	-40.258569
1.54156E-6	-40.268721
1.541605E-6	-40.341401
1.54165E-6	-40.358819
1.541695E-6	-40.355989
1.54174E-6	-40.40577
1.541785E-6	-40.40291
1.54183E-6	-40.398623
1.541875E-6	-40.411018
1.54192E-6	-40.410063
1.541965E-6	-40.354575
1.54201E-6	-40.310503
1.542055E-6	-40.294207
1.5421E-6	-40.293742
1.542145E-6	-40.276583
1.54219E-6	-40.276583
1.542235E-6	-40.306307
1.54228E-6	-40.310503
1.542325E-6	-40.308171
1.54237E-6	-40.366845
1.542415E-6	-40.418185
1.54246E-6	-40.443122
1.542505E-6	-40.478374
1.54255E-6	-40.472076
1.542595E-6	-40.477889
1.54264E-6	-40.474497
1.542685E-6	-40.504636
1.54273E-6	-40.502685
1.542775E-6	-40.438796
1.54282E-6	-40.406724
1.542865E-6	-40.368736
1.54291E-6	-40.374886
1.542955E-6	-40.391013
1.543E-6	-40.387688
1.543045E-6	-40.394817
1.54309E-6	-40.385314
1.543135E-6	-40.437355
1.54318E-6	-40.495378
1.543225E-6	-40.538426
1.54327E-6	-40.578431
1.543315E-6	-40.594337
1.54336E-6	-40.594337
1.543405E-6	-40.587868
1.54345E-6	-40.588365
1.543495E-6	-40.616805
1.54354E-6	-40.58936
1.543585E-6	-40.560111
1.54363E-6	-40.498299
1.543675E-6	-40.474497
1.54372E-6	-40.504148
1.543765E-6	-40.5061
1.54381E-6	-40.505612
1.543855E-6	-40.521253
1.5439E-6	-40.534495
1.543945E-6	-40.576447
1.54399E-6	-40.626326
1.544035E-6	-40.69051
1.54408E-6	-40.708366
1.544125E-6	-40.729378
1.54417E-6	-40.736576
1.544215E-6	-40.734518
1.54426E-6	-40.739664
1.544305E-6	-40.751524
1.54435E-6	-40.700704
1.544395E-6	-40.626828
1.54444E-6	-40.598821
1.544485E-6	-40.625323
1.54453E-6	-40.630341
1.544575E-6	-40.647951
1.54462E-6	-40.636874
1.544665E-6	-40.662091
1.54471E-6	-40.662597
1.544755E-6	-40.700194
1.5448E-6	-40.814979
1.544845E-6	-40.844419
1.54489E-6	-40.824945
1.544935E-6	-40.840201
1.54498E-6	-40.825995
1.545025E-6	-40.811836
1.54507E-6	-40.657036
1.545115E-6	-36.948637
1.54516E-6	-27.687854
1.545205E-6	-22.667225
1.54525E-6	-20.528605
1.545295E-6	-20.081097
1.54534E-6	-20.057709
1.545385E-6	-19.991323
1.54543E-6	-20.039263
1.545475E-6	-20.445528
1.54552E-6	-22.487979
1.545565E-6	-27.525177
1.54561E-6	-35.850267
1.545655E-6	-40.095723
1.5457E-6	-40.8302
1.545745E-6	-40.942581
1.54579E-6	-40.990869
1.545835E-6	-41.004531
1.54588E-6	-41.004531
1.545925E-6	-40.99469
1.54597E-6	-40.937188
1.546015E-6	-40.885228
1.54606E-6	-40.884163
1.546105E-6	-40.895891
1.54615E-6	-40.896958
1.546195E-6	-40.896958
1.54624E-6	-40.899095
1.546285E-6	-40.902835
1.54633E-6	-40.961507
1.546375E-6	-41.033636
1.54642E-6	-41.072934
1.546465E-6	-41.081282
1.54651E-6	-41.096349
1.546555E-6	-41.092437
1.5466E-6	-41.103622
1.546645E-6	-41.038046
1.54669E-6	-40.386738
1.546735E-6	-32.023171
1.54678E-6	-24.508741
1.546825E-6	-21.337718
1.54687E-6	-20.352691
1.546915E-6	-20.194058
1.54696E-6	-20.144388
1.547005E-6	-20.13721
1.54705E-6	-20.279824
1.547095E-6	-21.428485
1.54714E-6	-24.885177
1.547185E-6	-31.964063
1.54723E-6	-39.366666
1.547275E-6	-40.85181
1.54732E-6	-41.107543
1.547365E-6	-41.177602
1.54741E-6	-41.204454
1.547455E-6	-41.213059
1.5475E-6	-41.191293
1.547545E-6	-41.149782
1.54759E-6	-41.102502
1.547635E-6	-41.07071
1.54768E-6	-41.063492
1.547725E-6	-41.071822
1.54777E-6	-41.063492
1.547815E-6	-41.078497
1.54786E-6	-41.083511
1.547905E-6	-41.110907
1.54795E-6	-41.165657
1.547995E-6	-41.208468
1.54804E-6	-41.238977
1.548085E-6	-41.249387
1.54813E-6	-41.254602
1.548175E-6	-41.268538
1.54822E-6	-41.236089
1.548265E-6	-41.025379
1.54831E-6	-36.987529
1.548355E-6	-27.272304
1.5484E-6	-22.50805
1.548445E-6	-20.628333
1.54849E-6	-20.205427
1.548535E-6	-20.144388
1.54858E-6	-20.11664
1.548625E-6	-20.15923
1.54867E-6	-20.621312
1.548715E-6	-22.762981
1.54876E-6	-28.046539
1.548805E-6	-36.655462
1.54885E-6	-40.466753
1.548895E-6	-41.146953
1.54894E-6	-41.277854
1.548985E-6	-41.305923
1.54903E-6	-41.304749
1.549075E-6	-41.292451
1.54912E-6	-41.273194
1.549165E-6	-41.23205
1.54921E-6	-41.18045
1.549255E-6	-41.15148
1.5493E-6	-41.143561
1.549345E-6	-41.136221
1.54939E-6	-41.145822
1.549435E-6	-41.147519
1.54948E-6	-41.145257
1.549525E-6	-41.185583
1.54957E-6	-41.236089
1.549615E-6	-41.290696
1.54966E-6	-41.317671
1.549705E-6	-41.321791
1.54975E-6	-41.321791
1.549795E-6	-41.295961
1.54984E-6	-41.223983
1.549885E-6	-40.720653
1.54993E-6	-32.823295
1.549975E-6	-24.804345
1.55002E-6	-21.376301
1.550065E-6	-20.303977
1.55011E-6	-20.096167
1.550155E-6	-20.085081
1.5502E-6	-20.074023
1.550245E-6	-20.115748
1.55029E-6	-20.965844
1.550335E-6	-23.907258
1.55038E-6	-30.398623
1.550425E-6	-38.833923
1.55047E-6	-40.852867
1.550515E-6	-41.222257
1.55056E-6	-41.29479
1.550605E-6	-41.299474
1.55065E-6	-41.307683
1.550695E-6	-41.300646
1.55074E-6	-41.281936
1.550785E-6	-41.214782
1.55083E-6	-41.161115
1.550875E-6	-41.137349
1.55092E-6	-41.137349
1.550965E-6	-41.148085
1.55101E-6	-41.160548
1.551055E-6	-41.142996
1.5511E-6	-41.147519
1.551145E-6	-41.186153
1.55119E-6	-41.262145
1.551235E-6	-41.311206
1.55128E-6	-41.315907
1.551325E-6	-41.320025
1.55137E-6	-41.314143
1.551415E-6	-41.302404
1.55146E-6	-41.311793
1.551505E-6	-41.305923
1.55155E-6	-41.252863
1.551595E-6	-41.177602
1.55164E-6	-41.137349
1.551685E-6	-41.126641
1.55173E-6	-41.124952
1.551775E-6	-41.139607
1.55182E-6	-41.13002
1.551865E-6	-41.124952
1.55191E-6	-41.128893
1.551955E-6	-41.193007
1.552E-6	-41.270866
1.552045E-6	-41.321202
1.55209E-6	-41.316495
1.552135E-6	-41.311206
1.55218E-6	-41.304749
1.552225E-6	-41.309444
1.55227E-6	-41.317083
1.552315E-6	-41.300646
1.55236E-6	-41.246493
1.552405E-6	-41.15148
1.55245E-6	-41.117643
1.552495E-6	-41.118767
1.55254E-6	-41.135657
1.552585E-6	-41.131146
1.55263E-6	-41.128893
1.552675E-6	-41.120453
1.55272E-6	-41.144126
1.552765E-6	-41.219955
1.55281E-6	-41.297132
1.552855E-6	-41.315319
1.5529E-6	-41.308857
1.552945E-6	-41.311206
1.55299E-6	-41.306509
1.553035E-6	-41.320613
1.55308E-6	-41.31826
1.553125E-6	-41.297132
1.55317E-6	-41.227439
1.553215E-6	-41.154878
1.55326E-6	-41.139043
1.553305E-6	-41.132274
1.55335E-6	-41.142996
1.553395E-6	-41.131146
1.55344E-6	-41.127767
1.553485E-6	-41.131146
1.55353E-6	-41.158279
1.553575E-6	-41.237822
1.55362E-6	-41.300646
1.553665E-6	-41.317083
1.55371E-6	-41.312968
1.553755E-6	-41.318848
1.5538E-6	-41.325914
1.553845E-6	-41.331222
1.55389E-6	-41.327093
1.553935E-6	-41.29479
1.55398E-6	-41.21938
1.554025E-6	-41.161115
1.55407E-6	-41.149216
1.554115E-6	-41.147519
1.55416E-6	-41.144692
1.554205E-6	-41.131146
1.55425E-6	-41.12439
1.554295E-6	-41.137349
1.55434E-6	-41.184442
1.554385E-6	-41.254602
1.55443E-6	-41.315319
1.554475E-6	-41.3389
1.55452E-6	-41.335354
1.554565E-6	-41.337718
1.55461E-6	-41.356076
1.554655E-6	-41.360232
1.5547E-6	-41.339491
1.554745E-6	-41.297717
1.55479E-6	-41.230897
1.554835E-6	-41.172478
1.55488E-6	-41.161683
1.554925E-6	-41.147519
1.55497E-6	-41.134529
1.555015E-6	-41.132837
1.55506E-6	-41.129456
1.555105E-6	-41.146388
1.55515E-6	-41.193579
1.555195E-6	-41.266213
1.55524E-6	-41.320025
1.555285E-6	-41.335354
1.55533E-6	-41.343039
1.555375E-6	-41.355483
1.55542E-6	-41.359638
1.555465E-6	-41.354889
1.55551E-6	-41.341856
1.555555E-6	-41.300646
1.5556E-6	-41.235512
1.555645E-6	-41.185012
1.55569E-6	-41.163386
1.555735E-6	-41.169635
1.55578E-6	-41.160548
1.555825E-6	-41.152046
1.55587E-6	-41.160548
1.555915E-6	-41.185583
1.55596E-6	-41.221681
1.556005E-6	-41.291281
1.55605E-6	-41.345407
1.556095E-6	-41.363798
1.55614E-6	-41.37809
1.556185E-6	-41.391232
1.55623E-6	-41.383461
1.556275E-6	-41.384656
1.55632E-6	-41.369747
1.556365E-6	-41.337718
1.55641E-6	-41.267375
1.556455E-6	-41.206747
1.5565E-6	-41.186153
1.556545E-6	-41.176463
1.55659E-6	-41.172478
1.556635E-6	-41.177032
1.55668E-6	-41.189008
1.556725E-6	-41.204454
1.55677E-6	-41.236667
1.556815E-6	-41.31238
1.55686E-6	-41.369152
1.556905E-6	-41.402015
1.55695E-6	-41.417035
1.556995E-6	-41.419443
1.55704E-6	-41.411621
1.557085E-6	-41.403214
1.55713E-6	-41.402015
1.557175E-6	-41.370938
1.55722E-6	-41.301818
1.557265E-6	-41.240132
1.55731E-6	-41.210189
1.557355E-6	-41.201589
1.5574E-6	-41.211911
1.557445E-6	-41.227439
1.55749E-6	-41.225711
1.557535E-6	-41.236089
1.55758E-6	-41.27203
1.557625E-6	-41.357857
1.55767E-6	-41.423057
1.557715E-6	-41.450263
1.55776E-6	-41.466669
1.557805E-6	-41.466669
1.55785E-6	-41.450263
1.557895E-6	-41.446626
1.55794E-6	-41.455725
1.557985E-6	-41.414027
1.55803E-6	-41.340082
1.558075E-6	-41.28719
1.55812E-6	-41.254602
1.558165E-6	-41.249966
1.55821E-6	-41.262726
1.558255E-6	-41.277854
1.5583E-6	-41.280186
1.558345E-6	-41.285438
1.55839E-6	-41.328272
1.558435E-6	-41.408617
1.55848E-6	-41.488028
1.558525E-6	-41.518109
1.55857E-6	-41.51503
1.558615E-6	-41.508878
1.55866E-6	-41.508878
1.558705E-6	-41.51503
1.55875E-6	-41.518109
1.558795E-6	-41.478251
1.55884E-6	-41.402015
1.558885E-6	-41.34896
1.55893E-6	-41.324147
1.558975E-6	-41.335945
1.55902E-6	-41.351331
1.559065E-6	-41.349553
1.55911E-6	-41.348368
1.559155E-6	-41.359638
1.5592E-6	-41.409218
1.559245E-6	-41.492925
1.55929E-6	-41.55958
1.559335E-6	-41.582027
1.55938E-6	-41.577653
1.559425E-6	-41.573284
1.55947E-6	-41.586405
1.559515E-6	-41.60145
1.55956E-6	-41.60522
1.559605E-6	-41.558336
1.55965E-6	-41.487417
1.559695E-6	-41.427882
1.55974E-6	-41.414027
1.559785E-6	-41.429088
1.55983E-6	-41.439965
1.559875E-6	-41.43936
1.55992E-6	-41.436337
1.559965E-6	-41.436941
1.56001E-6	-41.491088
1.560055E-6	-41.586405
1.5601E-6	-41.647535
1.560145E-6	-41.658973
1.56019E-6	-41.660883
1.560235E-6	-41.665979
1.56028E-6	-41.672357
1.560325E-6	-41.685782
1.56037E-6	-41.687703
1.560415E-6	-41.643094
1.56046E-6	-41.57266
1.560505E-6	-41.519341
1.56055E-6	-41.517493
1.560595E-6	-41.52304
1.56064E-6	-41.523657
1.560685E-6	-41.519341
1.56073E-6	-41.519341
1.560775E-6	-41.537248
1.56082E-6	-41.593921
1.560865E-6	-41.667891
1.56091E-6	-41.723723
1.560955E-6	-41.734717
1.561E-6	-41.732775
1.561045E-6	-41.740549
1.56109E-6	-41.747037
1.561135E-6	-41.759393
1.56118E-6	-41.761998
1.561225E-6	-41.717269
1.56127E-6	-41.650709
1.561315E-6	-41.61088
1.56136E-6	-41.604591
1.561405E-6	-41.612768
1.56145E-6	-41.608992
1.561495E-6	-41.612768
1.56154E-6	-41.608363
1.561585E-6	-41.627273
1.56163E-6	-41.67555
1.561675E-6	-41.737956
1.56172E-6	-41.77505
1.561765E-6	-41.795358
1.56181E-6	-41.789452
1.561855E-6	-41.804561
1.5619E-6	-41.816421
1.561945E-6	-41.821703
1.56199E-6	-41.813783
1.562035E-6	-41.784865
1.56208E-6	-41.736012
1.562125E-6	-41.688984
1.56217E-6	-41.681302
1.562215E-6	-41.681942
1.56226E-6	-41.672357
1.562305E-6	-41.667254
1.56235E-6	-41.670442
1.562395E-6	-41.684501
1.56244E-6	-41.719204
1.562485E-6	-41.777665
1.56253E-6	-41.821042
1.562575E-6	-41.832948
1.56262E-6	-41.842895
1.562665E-6	-41.859523
1.56271E-6	-41.870198
1.562755E-6	-41.872203
1.5628E-6	-41.863523
1.562845E-6	-41.841567
1.56289E-6	-41.792076
1.562935E-6	-41.754837
1.56298E-6	-41.74509
1.563025E-6	-41.736012
1.56307E-6	-41.72954
1.563115E-6	-41.734069
1.56316E-6	-41.730187
1.563205E-6	-41.752235
1.56325E-6	-41.774397
1.563295E-6	-41.82633
1.56334E-6	-41.868862
1.563385E-6	-41.886932
1.56343E-6	-41.904403
