Wavelength (nm)	Power (dBm)
1.525E-6	-46.765416
1.525045E-6	-46.663512
1.52509E-6	-46.575773
1.525135E-6	-46.491707
1.52518E-6	-46.411138
1.525225E-6	-46.29672
1.52527E-6	-46.206945
1.525315E-6	-46.110112
1.52536E-6	-46.010189
1.525405E-6	-45.949953
1.52545E-6	-45.800443
1.525495E-6	-45.696024
1.52554E-6	-45.565805
1.525585E-6	-45.471407
1.52563E-6	-45.364056
1.525675E-6	-45.259295
1.52572E-6	-45.164127
1.525765E-6	-45.07519
1.52581E-6	-45.005879
1.525855E-6	-44.932245
1.5259E-6	-44.92684
1.525945E-6	-44.871822
1.52599E-6	-44.825402
1.526035E-6	-44.769042
1.52608E-6	-44.726279
1.526125E-6	-44.63063
1.52617E-6	-44.556839
1.526215E-6	-44.489161
1.52626E-6	-44.346245
1.526305E-6	-44.219341
1.52635E-6	-44.128505
1.526395E-6	-44.030732
1.52644E-6	-43.965308
1.526485E-6	-43.888079
1.52653E-6	-43.832095
1.526575E-6	-43.771645
1.52662E-6	-43.73044
1.526665E-6	-43.73044
1.52671E-6	-43.756148
1.526755E-6	-43.747905
1.5268E-6	-43.721223
1.526845E-6	-43.673403
1.52689E-6	-43.608124
1.526935E-6	-43.548726
1.52698E-6	-43.501785
1.527025E-6	-43.410352
1.52707E-6	-43.304972
1.527115E-6	-43.13185
1.52716E-6	-43.087416
1.527205E-6	-42.98432
1.52725E-6	-42.958495
1.527295E-6	-42.929411
1.52734E-6	-42.884458
1.527385E-6	-42.843309
1.52743E-6	-42.910695
1.527475E-6	-42.959353
1.52752E-6	-43.033815
1.527565E-6	-43.025091
1.52761E-6	-42.986047
1.527655E-6	-42.968807
1.5277E-6	-42.920893
1.527745E-6	-42.905604
1.52779E-6	-42.85
1.527835E-6	-42.705112
1.52788E-6	-42.554723
1.527925E-6	-42.429838
1.52797E-6	-42.394267
1.528015E-6	-42.416181
1.52806E-6	-42.376216
1.528105E-6	-42.34555
1.52815E-6	-42.332898
1.528195E-6	-42.392007
1.52824E-6	-42.491832
1.528285E-6	-42.618539
1.52833E-6	-42.642415
1.528375E-6	-42.621715
1.52842E-6	-42.618539
1.528465E-6	-42.597163
1.52851E-6	-42.580609
1.528555E-6	-42.557853
1.5286E-6	-42.4344
1.528645E-6	-42.265061
1.52869E-6	-42.132486
1.528735E-6	-42.092224
1.52878E-6	-42.077484
1.528825E-6	-42.094334
1.52887E-6	-42.073282
1.528915E-6	-42.063493
1.52896E-6	-42.085901
1.529005E-6	-42.240257
1.52905E-6	-42.406344
1.529095E-6	-42.466468
1.52914E-6	-42.471836
1.529185E-6	-42.454223
1.52923E-6	-42.435921
1.529275E-6	-42.459576
1.52932E-6	-42.423763
1.529365E-6	-42.35525
1.52941E-6	-42.187474
1.529455E-6	-42.019712
1.5295E-6	-41.989395
1.529545E-6	-41.962698
1.52959E-6	-41.990768
1.529635E-6	-41.983905
1.52968E-6	-41.984591
1.529725E-6	-41.975684
1.52977E-6	-42.118316
1.529815E-6	-42.292216
1.52986E-6	-42.38448
1.529905E-6	-42.409368
1.52995E-6	-42.392007
1.529995E-6	-42.414666
1.53004E-6	-42.421487
1.530085E-6	-42.41997
1.53013E-6	-42.371714
1.530175E-6	-42.232262
1.53022E-6	-42.069084
1.530265E-6	-42.012113
1.53031E-6	-41.99833
1.530355E-6	-41.983219
1.5304E-6	-41.953155
1.530445E-6	-41.953155
1.53049E-6	-41.977053
1.530535E-6	-42.090115
1.53058E-6	-42.253371
1.530625E-6	-42.395775
1.53067E-6	-42.442776
1.530715E-6	-42.428318
1.53076E-6	-42.430598
1.530805E-6	-42.4443
1.53085E-6	-42.476442
1.530895E-6	-42.474138
1.53094E-6	-42.347786
1.530985E-6	-42.168113
1.53103E-6	-42.062794
1.531075E-6	-42.059304
1.53112E-6	-42.057211
1.531165E-6	-42.062096
1.53121E-6	-42.048154
1.531255E-6	-42.081691
1.5313E-6	-42.153827
1.531345E-6	-42.30475
1.53139E-6	-42.450404
1.531435E-6	-42.555505
1.53148E-6	-42.579036
1.531525E-6	-42.60665
1.53157E-6	-42.621715
1.531615E-6	-42.595584
1.53166E-6	-42.634442
1.531705E-6	-42.553941
1.53175E-6	-42.395775
1.531795E-6	-42.267989
1.53184E-6	-42.232988
1.531885E-6	-42.226457
1.53193E-6	-42.271651
1.531975E-6	-42.248266
1.53202E-6	-42.260674
1.532065E-6	-42.329926
1.53211E-6	-42.452695
1.532155E-6	-42.652002
1.5322E-6	-42.772016
1.532245E-6	-42.823295
1.53229E-6	-42.841637
1.532335E-6	-42.870138
1.53238E-6	-42.87182
1.532425E-6	-42.908997
1.53247E-6	-42.883615
1.532515E-6	-42.771194
1.53256E-6	-42.620921
1.532605E-6	-42.533658
1.53265E-6	-42.527436
1.532695E-6	-42.571178
1.53274E-6	-42.562551
1.532785E-6	-42.588484
1.53283E-6	-42.605859
1.532875E-6	-42.718086
1.53292E-6	-42.923447
1.532965E-6	-43.106911
1.53301E-6	-43.168629
1.533055E-6	-43.21846
1.5331E-6	-43.247717
1.533145E-6	-43.28087
1.53319E-6	-43.303113
1.533235E-6	-43.297541
1.53328E-6	-43.233064
1.533325E-6	-43.10336
1.53337E-6	-42.965367
1.533415E-6	-42.966226
1.53346E-6	-42.972249
1.533505E-6	-43.013776
1.53355E-6	-43.032069
1.533595E-6	-43.046059
1.53364E-6	-43.134531
1.533685E-6	-43.309622
1.53373E-6	-43.506651
1.533775E-6	-43.632113
1.53382E-6	-43.703866
1.533865E-6	-43.752024
1.53391E-6	-43.77268
1.533955E-6	-43.795516
1.534E-6	-43.826851
1.534045E-6	-43.810111
1.53409E-6	-43.705904
1.534135E-6	-43.564486
1.53418E-6	-43.5164
1.534225E-6	-43.496925
1.53427E-6	-43.557584
1.534315E-6	-43.589227
1.53436E-6	-43.618104
1.534405E-6	-43.658251
1.53445E-6	-43.782008
1.534495E-6	-43.977229
1.53454E-6	-44.168012
1.534585E-6	-44.270123
1.53463E-6	-44.308603
1.534675E-6	-44.356891
1.53472E-6	-44.364003
1.534765E-6	-44.390179
1.53481E-6	-44.418917
1.534855E-6	-44.35926
1.5349E-6	-44.207882
1.534945E-6	-44.087127
1.53499E-6	-44.081566
1.535035E-6	-44.124013
1.53508E-6	-44.155557
1.535125E-6	-44.211317
1.53517E-6	-44.259687
1.535215E-6	-44.325031
1.53526E-6	-44.480623
1.535305E-6	-44.722412
1.53535E-6	-44.838614
1.535395E-6	-44.920093
1.53544E-6	-44.94172
1.535485E-6	-44.955291
1.53553E-6	-44.988038
1.535575E-6	-45.004504
1.53562E-6	-44.990778
1.535665E-6	-44.849213
1.53571E-6	-44.70698
1.535755E-6	-44.648325
1.5358E-6	-44.695442
1.535845E-6	-44.701848
1.53589E-6	-44.74696
1.535935E-6	-44.789927
1.53598E-6	-44.824083
1.536025E-6	-44.92279
1.53607E-6	-45.122961
1.536115E-6	-45.329842
1.53616E-6	-45.415132
1.536205E-6	-45.434821
1.53625E-6	-45.459177
1.536295E-6	-45.488278
1.53634E-6	-45.525319
1.536385E-6	-45.537736
1.53643E-6	-45.412111
1.536475E-6	-45.268051
1.53652E-6	-45.15985
1.536565E-6	-45.149888
1.53661E-6	-45.16698
1.536655E-6	-45.198493
1.5367E-6	-45.210009
1.536745E-6	-45.240384
1.53679E-6	-45.284149
1.536835E-6	-45.477534
1.53688E-6	-45.684754
1.536925E-6	-45.807053
1.53697E-6	-45.84359
1.537015E-6	-45.867002
1.53706E-6	-45.873715
1.537105E-6	-45.905741
1.53715E-6	-45.927791
1.537195E-6	-45.858626
1.53724E-6	-45.699249
1.537285E-6	-45.531523
1.53733E-6	-45.483671
1.537375E-6	-45.465288
1.53742E-6	-45.479068
1.537465E-6	-45.476002
1.53751E-6	-45.483671
1.537555E-6	-45.505216
1.5376E-6	-45.617742
1.537645E-6	-45.870357
1.53769E-6	-46.022337
1.537735E-6	-46.094181
1.53778E-6	-46.110112
1.537825E-6	-46.11366
1.53787E-6	-46.118988
1.537915E-6	-46.163641
1.53796E-6	-46.115435
1.538005E-6	-46.001533
1.53805E-6	-45.790546
1.538095E-6	-45.643149
1.53814E-6	-45.612995
1.538185E-6	-45.608253
1.53823E-6	-45.632015
1.538275E-6	-45.603516
1.53832E-6	-45.628839
1.538365E-6	-45.692801
1.53841E-6	-45.845258
1.538455E-6	-46.067759
1.5385E-6	-46.183435
1.538545E-6	-46.199698
1.53859E-6	-46.216021
1.538635E-6	-46.199698
1.53868E-6	-46.243364
1.538725E-6	-46.232406
1.53877E-6	-46.145725
1.538815E-6	-45.951663
1.53886E-6	-45.767541
1.538905E-6	-45.696024
1.53895E-6	-45.652715
1.538995E-6	-45.652715
1.53904E-6	-45.635193
1.539085E-6	-45.638374
1.53913E-6	-45.639965
1.539175E-6	-45.743028
1.53922E-6	-45.972229
1.539265E-6	-46.133227
1.53931E-6	-46.219657
1.539355E-6	-46.201508
1.5394E-6	-46.241536
1.539445E-6	-46.232406
1.53949E-6	-46.210573
1.539535E-6	-46.181632
1.53958E-6	-46.046736
1.539625E-6	-45.805399
1.53967E-6	-45.651119
1.539715E-6	-45.601938
1.53976E-6	-45.587763
1.539805E-6	-45.562678
1.53985E-6	-45.56737
1.539895E-6	-45.568935
1.53994E-6	-45.598784
1.539985E-6	-45.76918
1.54003E-6	-45.965363
1.540075E-6	-46.085356
1.54012E-6	-46.122543
1.540165E-6	-46.127882
1.54021E-6	-46.127882
1.540255E-6	-46.129663
1.5403E-6	-46.106567
1.540345E-6	-46.031036
1.54039E-6	-45.833595
1.540435E-6	-45.633604
1.54048E-6	-45.502132
1.540525E-6	-45.468346
1.54057E-6	-45.446982
1.540615E-6	-45.450028
1.54066E-6	-45.450028
1.540705E-6	-45.462231
1.54075E-6	-45.543958
1.540795E-6	-45.720273
1.54084E-6	-45.929492
1.540885E-6	-46.004993
1.54093E-6	-46.017127
1.540975E-6	-46.032777
1.54102E-6	-45.999804
1.541065E-6	-45.987718
1.54111E-6	-45.965363
1.541155E-6	-45.858626
1.5412E-6	-45.643149
1.541245E-6	-45.431787
1.54129E-6	-45.358086
1.541335E-6	-45.316527
1.54138E-6	-45.312097
1.541425E-6	-45.307673
1.54147E-6	-45.310622
1.541515E-6	-45.338741
1.54156E-6	-45.468346
1.541605E-6	-45.676722
1.54165E-6	-45.845258
1.541695E-6	-45.902359
1.54174E-6	-45.902359
1.541785E-6	-45.905741
1.54183E-6	-45.870357
1.541875E-6	-45.851937
1.54192E-6	-45.835259
1.541965E-6	-45.654311
1.54201E-6	-45.418156
1.542055E-6	-45.260753
1.5421E-6	-45.208568
1.542145E-6	-45.189876
1.54219E-6	-45.217222
1.542235E-6	-45.202808
1.54228E-6	-45.194182
1.542325E-6	-45.250557
1.54237E-6	-45.442418
1.542415E-6	-45.667103
1.54246E-6	-45.777385
1.542505E-6	-45.810362
1.54255E-6	-45.797141
1.542595E-6	-45.785606
1.54264E-6	-45.775743
1.542685E-6	-45.77082
1.54273E-6	-45.702477
1.542775E-6	-45.486742
1.54282E-6	-45.243288
1.542865E-6	-45.141367
1.54291E-6	-45.117314
1.542955E-6	-45.145625
1.543E-6	-45.125788
1.543045E-6	-45.121549
1.54309E-6	-45.134278
1.543135E-6	-45.252012
1.54318E-6	-45.456125
1.543225E-6	-45.673513
1.54327E-6	-45.747919
1.543315E-6	-45.749551
1.54336E-6	-45.734887
1.543405E-6	-45.760991
1.54345E-6	-45.747919
1.543495E-6	-45.747919
1.54354E-6	-45.605094
1.543585E-6	-45.353614
1.54363E-6	-45.181276
1.543675E-6	-45.093393
1.54372E-6	-45.084982
1.543765E-6	-45.110265
1.54381E-6	-45.117314
1.543855E-6	-45.100415
1.5439E-6	-45.139948
1.543945E-6	-45.285616
1.54399E-6	-45.550189
1.544035E-6	-45.725139
1.54408E-6	-45.767541
1.544125E-6	-45.752817
1.54417E-6	-45.746288
1.544215E-6	-45.772461
1.54426E-6	-45.76918
1.544305E-6	-45.720273
1.54435E-6	-45.54863
1.544395E-6	-45.306199
1.54444E-6	-45.134278
1.544485E-6	-45.120137
1.54453E-6	-45.124374
1.544575E-6	-45.110265
1.54462E-6	-45.117314
1.544665E-6	-45.117314
1.54471E-6	-45.201369
1.544755E-6	-45.388017
1.5448E-6	-45.663902
1.544845E-6	-45.756084
1.54489E-6	-45.762628
1.544935E-6	-45.746288
1.54498E-6	-45.73001
1.545025E-6	-45.594057
1.54507E-6	-44.774254
1.545115E-6	-36.825635
1.54516E-6	-26.08712
1.545205E-6	-21.104182
1.54525E-6	-19.111554
1.545295E-6	-18.674202
1.54534E-6	-18.601209
1.545385E-6	-18.598063
1.54543E-6	-18.598063
1.545475E-6	-19.055289
1.54552E-6	-21.23205
1.545565E-6	-26.458916
1.54561E-6	-36.08712
1.545655E-6	-43.082998
1.5457E-6	-45.214335
1.545745E-6	-45.678327
1.54579E-6	-45.780672
1.545835E-6	-45.810362
1.54588E-6	-45.812017
1.545925E-6	-45.702477
1.54597E-6	-45.472938
1.546015E-6	-45.26659
1.54606E-6	-45.210009
1.546105E-6	-45.201369
1.54615E-6	-45.194182
1.546195E-6	-45.182708
1.54624E-6	-45.191311
1.546285E-6	-45.230235
1.54633E-6	-45.359578
1.546375E-6	-45.600361
1.54642E-6	-45.790546
1.546465E-6	-45.848596
1.54651E-6	-45.865326
1.546555E-6	-45.88212
1.5466E-6	-45.89729
1.546645E-6	-45.89729
1.54669E-6	-45.8603
1.546735E-6	-45.696024
1.54678E-6	-45.465288
1.546825E-6	-45.304725
1.54687E-6	-45.25638
1.546915E-6	-45.241836
1.54696E-6	-45.243288
1.547005E-6	-45.250557
1.54705E-6	-45.254924
1.547095E-6	-45.306199
1.54714E-6	-45.485206
1.547185E-6	-45.741399
1.54723E-6	-45.878756
1.547275E-6	-45.924392
1.54732E-6	-45.929492
1.547365E-6	-45.948245
1.54741E-6	-45.941416
1.547455E-6	-45.936302
1.5475E-6	-45.878756
1.547545E-6	-45.694412
1.54759E-6	-45.453076
1.547635E-6	-45.318004
1.54768E-6	-45.294425
1.547725E-6	-45.273898
1.54777E-6	-45.276825
1.547815E-6	-45.291487
1.54786E-6	-45.320961
1.547905E-6	-45.394028
1.54795E-6	-45.592483
1.547995E-6	-45.825283
1.54804E-6	-45.951663
1.548085E-6	-45.989443
1.54813E-6	-46.0206
1.548175E-6	-46.013657
1.54822E-6	-46.003263
1.548265E-6	-45.984272
1.54831E-6	-45.905741
1.548355E-6	-45.704092
1.5484E-6	-45.466817
1.548445E-6	-45.36555
1.54849E-6	-45.329842
1.548535E-6	-45.318004
1.54858E-6	-45.326879
1.548625E-6	-45.341712
1.54867E-6	-45.362563
1.548715E-6	-45.460704
1.54876E-6	-45.683147
1.548805E-6	-45.915904
1.54885E-6	-46.015392
1.548895E-6	-46.03452
1.54894E-6	-46.050233
1.548985E-6	-46.041496
1.54903E-6	-46.031036
1.549075E-6	-46.018863
1.54912E-6	-45.9176
1.549165E-6	-45.676722
1.54921E-6	-45.474469
1.549255E-6	-45.370034
1.5493E-6	-45.356595
1.549345E-6	-45.347659
1.54939E-6	-45.36107
1.549435E-6	-45.367044
1.54948E-6	-45.377518
1.549525E-6	-45.497509
1.54957E-6	-45.744658
1.549615E-6	-45.965363
1.54966E-6	-46.043242
1.549705E-6	-46.06074
1.54975E-6	-46.03452
1.549795E-6	-45.979106
1.54984E-6	-45.649524
1.549885E-6	-43.708963
1.54993E-6	-31.395422
1.549975E-6	-23.18397
1.55002E-6	-19.779843
1.550065E-6	-18.71924
1.55011E-6	-18.544928
1.550155E-6	-18.517059
1.5502E-6	-18.477117
1.550245E-6	-18.566729
1.55029E-6	-19.41574
1.550335E-6	-22.527436
1.55038E-6	-29.669786
1.550425E-6	-39.37418
1.55047E-6	-44.424928
1.550515E-6	-45.713793
1.55056E-6	-45.961934
1.550605E-6	-46.010189
1.55065E-6	-46.036263
1.550695E-6	-46.003263
1.55074E-6	-45.833595
1.550785E-6	-45.559552
1.55083E-6	-45.383514
1.550875E-6	-45.335773
1.55092E-6	-45.326879
1.550965E-6	-45.325399
1.55101E-6	-45.32836
1.551055E-6	-45.320961
1.5511E-6	-45.36555
1.551145E-6	-45.562678
1.55119E-6	-45.83859
1.551235E-6	-46.001533
1.55128E-6	-46.048484
1.551325E-6	-46.038007
1.55137E-6	-46.036263
1.551415E-6	-46.043242
1.55146E-6	-46.044989
1.551505E-6	-45.989443
1.55155E-6	-45.765903
1.551595E-6	-45.477534
1.55164E-6	-45.323919
1.551685E-6	-45.294425
1.55173E-6	-45.285616
1.551775E-6	-45.284149
1.55182E-6	-45.285616
1.551865E-6	-45.269512
1.55191E-6	-45.338741
1.551955E-6	-45.56737
1.552E-6	-45.861975
1.552045E-6	-45.989443
1.55209E-6	-46.013657
1.552135E-6	-46.013657
1.55218E-6	-46.013657
1.552225E-6	-46.017127
1.55227E-6	-46.010189
1.552315E-6	-45.932895
1.55236E-6	-45.683147
1.552405E-6	-45.383514
1.55245E-6	-45.260753
1.552495E-6	-45.241836
1.55254E-6	-45.246194
1.552585E-6	-45.228787
1.55263E-6	-45.218666
1.552675E-6	-45.223001
1.55272E-6	-45.316527
1.552765E-6	-45.57677
1.55281E-6	-45.84359
1.552855E-6	-45.955084
1.5529E-6	-45.970512
1.552945E-6	-45.973948
1.55299E-6	-45.985995
1.553035E-6	-45.989443
1.55308E-6	-45.972229
1.553125E-6	-45.856953
1.55317E-6	-45.570501
1.553215E-6	-45.319482
1.55326E-6	-45.215778
1.553305E-6	-45.194182
1.55335E-6	-45.178413
1.553395E-6	-45.158426
1.55344E-6	-45.158426
1.553485E-6	-45.172693
1.55353E-6	-45.30178
1.553575E-6	-45.570501
1.55362E-6	-45.833595
1.553665E-6	-45.929492
1.55371E-6	-45.948245
1.553755E-6	-45.949953
1.5538E-6	-45.951663
1.553845E-6	-45.949953
1.55389E-6	-45.919297
1.553935E-6	-45.790546
1.55398E-6	-45.506759
1.554025E-6	-45.262212
1.55407E-6	-45.162701
1.554115E-6	-45.135695
1.55416E-6	-45.125788
1.554205E-6	-45.108856
1.55425E-6	-45.111674
1.554295E-6	-45.141367
1.55434E-6	-45.285616
1.554385E-6	-45.55799
1.55443E-6	-45.802094
1.554475E-6	-45.89729
1.55452E-6	-45.920995
1.554565E-6	-45.926091
1.55461E-6	-45.926091
1.554655E-6	-45.9176
1.5547E-6	-45.885487
1.554745E-6	-45.736514
1.55479E-6	-45.440898
1.554835E-6	-45.197055
1.55488E-6	-45.09901
1.554925E-6	-45.073793
1.55497E-6	-45.064026
1.555015E-6	-45.055671
1.55506E-6	-45.069604
1.555105E-6	-45.089186
1.55515E-6	-45.246194
1.555195E-6	-45.545515
1.55524E-6	-45.787252
1.555285E-6	-45.868679
1.55533E-6	-45.898979
1.555375E-6	-45.900669
1.55542E-6	-45.895602
1.555465E-6	-45.885487
1.55551E-6	-45.855281
1.555555E-6	-45.691191
1.5556E-6	-45.394028
1.555645E-6	-45.154155
1.55569E-6	-45.058454
1.555735E-6	-45.040396
1.55578E-6	-45.040396
1.555825E-6	-45.036239
1.55587E-6	-45.0515
1.555915E-6	-45.079384
1.55596E-6	-45.240384
1.556005E-6	-45.543958
1.55605E-6	-45.785606
1.556095E-6	-45.878756
1.55614E-6	-45.898979
1.556185E-6	-45.895602
1.55623E-6	-45.892228
1.556275E-6	-45.887171
1.55632E-6	-45.86365
1.556365E-6	-45.684754
1.55641E-6	-45.364056
1.556455E-6	-45.124374
1.5565E-6	-45.0515
1.556545E-6	-45.036239
1.55659E-6	-45.026556
1.556635E-6	-45.047333
1.55668E-6	-45.0515
1.556725E-6	-45.071
1.55677E-6	-45.250557
1.556815E-6	-45.568935
1.55686E-6	-45.821963
1.556905E-6	-45.91082
1.55695E-6	-45.931193
1.556995E-6	-45.919297
1.55704E-6	-45.919297
1.557085E-6	-45.909126
1.55713E-6	-45.89729
1.557175E-6	-45.713793
1.55722E-6	-45.398542
1.557265E-6	-45.157002
1.55731E-6	-45.086383
1.557355E-6	-45.073793
1.5574E-6	-45.087784
1.557445E-6	-45.094797
1.55749E-6	-45.09199
1.557535E-6	-45.135695
1.55758E-6	-45.331324
1.557625E-6	-45.647929
1.55767E-6	-45.902359
1.557715E-6	-45.984272
1.55776E-6	-45.992894
1.557805E-6	-45.992894
1.55785E-6	-45.985995
1.557895E-6	-46.008457
1.55794E-6	-45.979106
1.557985E-6	-45.795491
1.55803E-6	-45.472938
1.558075E-6	-45.237482
1.55812E-6	-45.155578
1.558165E-6	-45.157002
1.55821E-6	-45.169836
1.558255E-6	-45.184141
1.5583E-6	-45.178413
1.558345E-6	-45.224447
1.55839E-6	-45.419668
1.558435E-6	-45.757719
1.55848E-6	-46.015392
1.558525E-6	-46.101254
1.55857E-6	-46.110112
1.558615E-6	-46.118988
1.55866E-6	-46.126102
1.558705E-6	-46.140364
1.55875E-6	-46.118988
1.558795E-6	-45.914209
1.55884E-6	-45.592483
1.558885E-6	-45.367044
1.55893E-6	-45.316527
1.558975E-6	-45.322439
1.55902E-6	-45.340226
1.559065E-6	-45.340226
1.55911E-6	-45.344684
1.559155E-6	-45.389519
1.5592E-6	-45.590909
1.559245E-6	-45.944829
1.55929E-6	-46.20332
1.559335E-6	-46.272721
1.55938E-6	-46.285627
1.559425E-6	-46.300424
1.55947E-6	-46.320853
1.559515E-6	-46.341378
1.55956E-6	-46.305986
1.559605E-6	-46.122543
1.55965E-6	-45.800443
1.559695E-6	-45.581478
1.55974E-6	-45.529971
1.559785E-6	-45.533075
1.55983E-6	-45.553308
1.559875E-6	-45.559552
1.55992E-6	-45.562678
1.559965E-6	-45.617742
1.56001E-6	-45.831931
1.560055E-6	-46.172627
1.5601E-6	-46.434006
1.560145E-6	-46.493644
1.56019E-6	-46.524748
1.560235E-6	-46.546263
1.56028E-6	-46.567884
1.560325E-6	-46.591595
1.56037E-6	-46.561977
1.560415E-6	-46.377061
1.56046E-6	-46.069515
1.560505E-6	-45.846927
1.56055E-6	-45.807053
1.560595E-6	-45.805399
1.56064E-6	-45.81533
1.560685E-6	-45.820304
1.56073E-6	-45.831931
1.560775E-6	-45.89729
1.56082E-6	-46.103025
1.560865E-6	-46.441655
1.56091E-6	-46.695862
1.560955E-6	-46.775739
1.561E-6	-46.804776
1.561045E-6	-46.836102
1.56109E-6	-46.867657
1.561135E-6	-46.888822
1.56118E-6	-46.852903
1.561225E-6	-46.697892
1.56127E-6	-46.401645
1.561315E-6	-46.183435
1.56136E-6	-46.127882
1.561405E-6	-46.13501
1.56145E-6	-46.149302
1.561495E-6	-46.149302
1.56154E-6	-46.17983
1.561585E-6	-46.245193
1.56163E-6	-46.418747
1.561675E-6	-46.757175
1.56172E-6	-47.002748
1.561765E-6	-47.110804
1.56181E-6	-47.151183
1.561855E-6	-47.176045
1.5619E-6	-47.203331
1.561945E-6	-47.217038
1.56199E-6	-47.198771
1.562035E-6	-47.070797
1.56208E-6	-46.794383
1.562125E-6	-46.563945
1.56217E-6	-46.491707
1.562215E-6	-46.483969
1.56226E-6	-46.507225
1.562305E-6	-46.522798
1.56235E-6	-46.544302
1.562395E-6	-46.605486
1.56244E-6	-46.767479
1.562485E-6	-47.064165
1.56253E-6	-47.349462
1.562575E-6	-47.469044
1.56262E-6	-47.517814
1.562665E-6	-47.552282
1.56271E-6	-47.579558
1.562755E-6	-47.584535
1.5628E-6	-47.592012
1.562845E-6	-47.476325
1.56289E-6	-47.212464
1.562935E-6	-46.974526
1.56298E-6	-46.8867
1.563025E-6	-46.880343
1.56307E-6	-46.90157
1.563115E-6	-46.922901
1.56316E-6	-46.96372
1.563205E-6	-47.009287
1.56325E-6	-47.14893
1.563295E-6	-47.447275
1.56334E-6	-47.75726
1.563385E-6	-47.886124
1.56343E-6	-47.956087
1.563475E-6	-47.977842
