Wavelength (nm)	Power (dBm)
1.525E-6	-48.374356
1.525045E-6	-48.285661
1.52509E-6	-48.187282
1.525135E-6	-48.10229
1.52518E-6	-47.986029
1.525225E-6	-47.880789
1.52527E-6	-47.806775
1.525315E-6	-47.723704
1.52536E-6	-47.639669
1.525405E-6	-47.552282
1.52545E-6	-47.447275
1.525495E-6	-47.370745
1.52554E-6	-47.300203
1.525585E-6	-47.221617
1.52563E-6	-47.142177
1.525675E-6	-47.064165
1.52572E-6	-46.976691
1.525765E-6	-46.922901
1.52581E-6	-46.836102
1.525855E-6	-46.773673
1.5259E-6	-46.706021
1.525945E-6	-46.627405
1.52599E-6	-46.550186
1.526035E-6	-46.507225
1.52608E-6	-46.443569
1.526125E-6	-46.380834
1.52617E-6	-46.311555
1.526215E-6	-46.23423
1.52626E-6	-46.178028
1.526305E-6	-46.117211
1.52635E-6	-46.048484
1.526395E-6	-45.998075
1.52644E-6	-45.948245
1.526485E-6	-45.861975
1.52653E-6	-45.830268
1.526575E-6	-45.777385
1.52662E-6	-45.728386
1.526665E-6	-45.686362
1.52671E-6	-45.639965
1.526755E-6	-45.583049
1.5268E-6	-45.542402
1.526845E-6	-45.50059
1.52689E-6	-45.450028
1.526935E-6	-45.40306
1.52698E-6	-45.349147
1.527025E-6	-45.295895
1.52707E-6	-45.270973
1.527115E-6	-45.22734
1.52716E-6	-45.175552
1.527205E-6	-45.135695
1.52725E-6	-45.09199
1.527295E-6	-45.072396
1.52734E-6	-45.047333
1.527385E-6	-45.005879
1.52743E-6	-44.972998
1.527475E-6	-44.94172
1.52752E-6	-44.93901
1.527565E-6	-44.90932
1.52761E-6	-44.869156
1.527655E-6	-44.843911
1.5277E-6	-44.803032
1.527745E-6	-44.78339
1.52779E-6	-44.771647
1.527835E-6	-44.744369
1.52788E-6	-44.705696
1.527925E-6	-44.67373
1.52797E-6	-44.661009
1.528015E-6	-44.639468
1.52806E-6	-44.613006
1.528105E-6	-44.604221
1.52815E-6	-44.57299
1.528195E-6	-44.558079
1.52824E-6	-44.538276
1.528285E-6	-44.539511
1.52833E-6	-44.548166
1.528375E-6	-44.513649
1.52842E-6	-44.507514
1.528465E-6	-44.480623
1.52851E-6	-44.472101
1.528555E-6	-44.458744
1.5286E-6	-44.464811
1.528645E-6	-44.430947
1.52869E-6	-44.377071
1.528735E-6	-44.383025
1.52878E-6	-44.377071
1.528825E-6	-44.377071
1.52887E-6	-44.374692
1.528915E-6	-44.340342
1.52896E-6	-44.341522
1.529005E-6	-44.32856
1.52905E-6	-44.361631
1.529095E-6	-44.355707
1.52914E-6	-44.343883
1.529185E-6	-44.312118
1.52923E-6	-44.296906
1.529275E-6	-44.31329
1.52932E-6	-44.302751
1.529365E-6	-44.306261
1.52941E-6	-44.27942
1.529455E-6	-44.264322
1.5295E-6	-44.274769
1.529545E-6	-44.258529
1.52959E-6	-44.264322
1.529635E-6	-44.251588
1.52968E-6	-44.249277
1.529725E-6	-44.234283
1.52977E-6	-44.248122
1.529815E-6	-44.256214
1.52986E-6	-44.273607
1.529905E-6	-44.270123
1.52995E-6	-44.262004
1.529995E-6	-44.256214
1.53004E-6	-44.256214
1.530085E-6	-44.281748
1.53013E-6	-44.271284
1.530175E-6	-44.262004
1.53022E-6	-44.240044
1.530265E-6	-44.234283
1.53031E-6	-44.258529
1.530355E-6	-44.253901
1.5304E-6	-44.258529
1.530445E-6	-44.236586
1.53049E-6	-44.241197
1.530535E-6	-44.262004
1.53058E-6	-44.267802
1.530625E-6	-44.275931
1.53067E-6	-44.264322
1.530715E-6	-44.255057
1.53076E-6	-44.273607
1.530805E-6	-44.287571
1.53085E-6	-44.294571
1.530895E-6	-44.317983
1.53094E-6	-44.293403
1.530985E-6	-44.284076
1.53103E-6	-44.299243
1.531075E-6	-44.32268
1.53112E-6	-44.333269
1.531165E-6	-44.314463
1.53121E-6	-44.32856
1.531255E-6	-44.332091
1.5313E-6	-44.350973
1.531345E-6	-44.369938
1.53139E-6	-44.398542
1.531435E-6	-44.405722
1.53148E-6	-44.388986
1.531525E-6	-44.412914
1.53157E-6	-44.427335
1.531615E-6	-44.447846
1.53166E-6	-44.443011
1.531705E-6	-44.474535
1.53175E-6	-44.479405
1.531795E-6	-44.463597
1.53184E-6	-44.508741
1.531885E-6	-44.509967
1.53193E-6	-44.517335
1.531975E-6	-44.541982
1.53202E-6	-44.540747
1.532065E-6	-44.568014
1.53211E-6	-44.601714
1.532155E-6	-44.619292
1.5322E-6	-44.639468
1.532245E-6	-44.635678
1.53229E-6	-44.676279
1.532335E-6	-44.683934
1.53238E-6	-44.726279
1.532425E-6	-44.739193
1.53247E-6	-44.721124
1.532515E-6	-44.763836
1.53256E-6	-44.789927
1.532605E-6	-44.795165
1.53265E-6	-44.813545
1.532695E-6	-44.834646
1.53274E-6	-44.85054
1.532785E-6	-44.877159
1.53283E-6	-44.905286
1.532875E-6	-44.960732
1.53292E-6	-44.952574
1.532965E-6	-45.01276
1.53301E-6	-45.01276
1.533055E-6	-45.034855
1.5331E-6	-45.079384
1.533145E-6	-45.127202
1.53319E-6	-45.124374
1.533235E-6	-45.155578
1.53328E-6	-45.171264
1.533325E-6	-45.189876
1.53337E-6	-45.236032
1.533415E-6	-45.249102
1.53346E-6	-45.284149
1.533505E-6	-45.304725
1.53355E-6	-45.334289
1.533595E-6	-45.394028
1.53364E-6	-45.398542
1.533685E-6	-45.442418
1.53373E-6	-45.474469
1.533775E-6	-45.526869
1.53382E-6	-45.550189
1.533865E-6	-45.597208
1.53391E-6	-45.617742
1.533955E-6	-45.652715
1.534E-6	-45.679933
1.534045E-6	-45.717032
1.53409E-6	-45.743028
1.534135E-6	-45.774102
1.53418E-6	-45.803746
1.534225E-6	-45.808707
1.53427E-6	-45.83859
1.534315E-6	-45.883803
1.53436E-6	-45.934598
1.534405E-6	-45.96022
1.53445E-6	-45.973948
1.534495E-6	-46.031036
1.53454E-6	-46.071273
1.534585E-6	-46.108339
1.53463E-6	-46.151092
1.534675E-6	-46.196078
1.53472E-6	-46.22876
1.534765E-6	-46.243364
1.53481E-6	-46.281935
1.534855E-6	-46.33017
1.5349E-6	-46.35449
1.534945E-6	-46.369524
1.53499E-6	-46.414941
1.535035E-6	-46.435917
1.53508E-6	-46.483969
1.535125E-6	-46.509168
1.53517E-6	-46.560009
1.535215E-6	-46.597542
1.53526E-6	-46.629403
1.535305E-6	-46.641411
1.53535E-6	-46.724367
1.535395E-6	-46.746896
1.53544E-6	-46.773673
1.535485E-6	-46.804776
1.53553E-6	-46.821455
1.535575E-6	-46.871882
1.53562E-6	-46.937895
1.535665E-6	-46.940041
1.53571E-6	-46.942188
1.535755E-6	-46.972363
1.5358E-6	-47.015836
1.535845E-6	-47.039933
1.53589E-6	-47.064165
1.535935E-6	-47.092978
1.53598E-6	-47.128704
1.536025E-6	-47.160207
1.53607E-6	-47.196493
1.536115E-6	-47.256112
1.53616E-6	-47.286231
1.536205E-6	-47.307206
1.53625E-6	-47.33298
1.536295E-6	-47.351822
1.53634E-6	-47.392133
1.536385E-6	-47.411234
1.53643E-6	-47.430418
1.536475E-6	-47.447275
1.53652E-6	-47.459355
1.536565E-6	-47.483618
1.53661E-6	-47.512913
1.536655E-6	-47.525177
1.5367E-6	-47.549811
1.536745E-6	-47.592012
1.53679E-6	-47.597004
1.536835E-6	-47.632109
1.53688E-6	-47.654827
1.536925E-6	-47.700623
1.53697E-6	-47.718564
1.537015E-6	-47.723704
1.53706E-6	-47.746907
1.537105E-6	-47.775437
1.53715E-6	-47.809397
1.537195E-6	-47.8199
1.53724E-6	-47.809397
1.537285E-6	-47.804155
1.53733E-6	-47.851562
1.537375E-6	-47.872798
1.53742E-6	-47.862167
1.537465E-6	-47.878124
1.53751E-6	-47.886124
1.537555E-6	-47.896815
1.5376E-6	-47.93444
1.537645E-6	-47.972393
1.53769E-6	-47.977842
1.537735E-6	-47.983298
1.53778E-6	-47.988761
1.537825E-6	-48.010681
1.53787E-6	-48.032713
1.537915E-6	-48.04931
1.53796E-6	-48.04931
1.538005E-6	-48.046539
1.53805E-6	-48.01893
1.538095E-6	-48.021683
1.53814E-6	-48.046539
1.538185E-6	-48.057633
1.53823E-6	-48.06041
1.538275E-6	-48.041003
1.53832E-6	-48.054857
1.538365E-6	-48.071539
1.53841E-6	-48.082696
1.538455E-6	-48.133261
1.5385E-6	-48.121974
1.538545E-6	-48.124793
1.53859E-6	-48.133261
1.538635E-6	-48.138916
1.53868E-6	-48.150248
1.538725E-6	-48.147412
1.53877E-6	-48.138916
1.538815E-6	-48.113527
1.53886E-6	-48.096683
1.538905E-6	-48.110715
1.53895E-6	-48.130437
1.538995E-6	-48.116341
1.53904E-6	-48.121974
1.539085E-6	-48.096683
1.53913E-6	-48.121974
1.539175E-6	-48.133261
1.53922E-6	-48.141746
1.539265E-6	-48.138916
1.53931E-6	-48.127614
1.539355E-6	-48.130437
1.5394E-6	-48.136088
1.539445E-6	-48.124793
1.53949E-6	-48.153086
1.539535E-6	-48.119156
1.53958E-6	-48.119156
1.539625E-6	-48.110715
1.53967E-6	-48.096683
1.539715E-6	-48.093882
1.53976E-6	-48.08549
1.539805E-6	-48.06041
1.53985E-6	-48.06319
1.539895E-6	-48.057633
1.53994E-6	-48.057633
1.539985E-6	-48.068754
1.54003E-6	-48.08549
1.540075E-6	-48.054857
1.54012E-6	-48.068754
1.540165E-6	-48.08549
1.54021E-6	-48.06319
1.540255E-6	-48.074325
1.5403E-6	-48.065971
1.540345E-6	-48.04931
1.54039E-6	-48.024438
1.540435E-6	-48.007935
1.54048E-6	-48.005191
1.540525E-6	-47.975117
1.54057E-6	-47.969671
1.540615E-6	-47.966951
1.54066E-6	-47.972393
1.540705E-6	-47.964232
1.54075E-6	-47.975117
1.540795E-6	-47.980569
1.54084E-6	-47.991495
1.540885E-6	-47.975117
1.54093E-6	-47.988761
1.540975E-6	-47.972393
1.54102E-6	-47.947956
1.541065E-6	-47.953375
1.54111E-6	-47.942545
1.541155E-6	-47.947956
1.5412E-6	-47.92635
1.541245E-6	-47.90217
1.54129E-6	-47.872798
1.541335E-6	-47.880789
1.54138E-6	-47.851562
1.541425E-6	-47.867479
1.54147E-6	-47.864822
1.541515E-6	-47.859513
1.54156E-6	-47.859513
1.541605E-6	-47.846268
1.54165E-6	-47.89414
1.541695E-6	-47.872798
1.54174E-6	-47.883456
1.541785E-6	-47.872798
1.54183E-6	-47.846268
1.541875E-6	-47.840982
1.54192E-6	-47.846268
1.541965E-6	-47.840982
1.54201E-6	-47.809397
1.542055E-6	-47.770236
1.5421E-6	-47.77804
1.542145E-6	-47.744323
1.54219E-6	-47.767637
1.542235E-6	-47.762445
1.54228E-6	-47.762445
1.542325E-6	-47.75208
1.54237E-6	-47.767637
1.542415E-6	-47.772835
1.54246E-6	-47.791078
1.542505E-6	-47.788467
1.54255E-6	-47.77804
1.542595E-6	-47.759852
1.54264E-6	-47.754669
1.542685E-6	-47.78325
1.54273E-6	-47.770236
1.542775E-6	-47.749493
1.54282E-6	-47.705742
1.542865E-6	-47.705742
1.54291E-6	-47.687854
1.542955E-6	-47.705742
1.543E-6	-47.710866
1.543045E-6	-47.687854
1.54309E-6	-47.698066
1.543135E-6	-47.698066
1.54318E-6	-47.692957
1.543225E-6	-47.715996
1.54327E-6	-47.731424
1.543315E-6	-47.721133
1.54336E-6	-47.721133
1.543405E-6	-47.700623
1.54345E-6	-47.710866
1.543495E-6	-47.736579
1.54354E-6	-47.710866
1.543585E-6	-47.6675
1.54363E-6	-47.662426
1.543675E-6	-47.657359
1.54372E-6	-47.6675
1.543765E-6	-47.677665
1.54381E-6	-47.664962
1.543855E-6	-47.664962
1.5439E-6	-47.652297
1.543945E-6	-47.6675
1.54399E-6	-47.687854
1.544035E-6	-47.71343
1.54408E-6	-47.708303
1.544125E-6	-47.705742
1.54417E-6	-47.710866
1.544215E-6	-47.710866
1.54426E-6	-47.708303
1.544305E-6	-47.718564
1.54435E-6	-47.692957
1.544395E-6	-47.685304
1.54444E-6	-47.662426
1.544485E-6	-47.690404
1.54453E-6	-47.690404
1.544575E-6	-47.68021
1.54462E-6	-47.672579
1.544665E-6	-47.672579
1.54471E-6	-47.670039
1.544755E-6	-47.703182
1.5448E-6	-47.74174
1.544845E-6	-47.728849
1.54489E-6	-47.731424
1.544935E-6	-47.731424
1.54498E-6	-47.75208
1.545025E-6	-47.744323
1.54507E-6	-47.677665
1.545115E-6	-46.118988
1.54516E-6	-39.006647
1.545205E-6	-34.591702
1.54525E-6	-32.524328
1.545295E-6	-32.033563
1.54534E-6	-31.961334
1.545385E-6	-32.000395
1.54543E-6	-31.953836
1.545475E-6	-32.316579
1.54552E-6	-34.330913
1.545565E-6	-38.900841
1.54561E-6	-45.28855
1.545655E-6	-47.461776
1.5457E-6	-47.705742
1.545745E-6	-47.75726
1.54579E-6	-47.791078
1.545835E-6	-47.798919
1.54588E-6	-47.788467
1.545925E-6	-47.78325
1.54597E-6	-47.746907
1.546015E-6	-47.75208
1.54606E-6	-47.754669
1.546105E-6	-47.762445
1.54615E-6	-47.759852
1.546195E-6	-47.739159
1.54624E-6	-47.765041
1.546285E-6	-47.772835
1.54633E-6	-47.796304
1.546375E-6	-47.81202
1.54642E-6	-47.8199
1.546465E-6	-47.825161
1.54651E-6	-47.822529
1.546555E-6	-47.85421
1.5466E-6	-47.859513
1.546645E-6	-47.870138
1.54669E-6	-47.846268
1.546735E-6	-47.838341
1.54678E-6	-47.827793
1.546825E-6	-47.825161
1.54687E-6	-47.835702
1.546915E-6	-47.830428
1.54696E-6	-47.830428
1.547005E-6	-47.833064
1.54705E-6	-47.838341
1.547095E-6	-47.864822
1.54714E-6	-47.878124
1.547185E-6	-47.891466
1.54723E-6	-47.896815
1.547275E-6	-47.907532
1.54732E-6	-47.910215
1.547365E-6	-47.923656
1.54741E-6	-47.923656
1.547455E-6	-47.918275
1.5475E-6	-47.910215
1.547545E-6	-47.910215
1.54759E-6	-47.896815
1.547635E-6	-47.899492
1.54768E-6	-47.888795
1.547725E-6	-47.888795
1.54777E-6	-47.89414
1.547815E-6	-47.90485
1.54786E-6	-47.910215
1.547905E-6	-47.92635
1.54795E-6	-47.94525
1.547995E-6	-47.9588
1.54804E-6	-47.964232
1.548085E-6	-47.996968
1.54813E-6	-47.983298
1.548175E-6	-48.002448
1.54822E-6	-48.005191
1.548265E-6	-47.988761
1.54831E-6	-47.991495
1.548355E-6	-47.975117
1.5484E-6	-47.966951
1.548445E-6	-47.956087
1.54849E-6	-47.94525
1.548535E-6	-47.942545
1.54858E-6	-47.953375
1.548625E-6	-47.969671
1.54867E-6	-47.975117
1.548715E-6	-47.980569
1.54876E-6	-47.994231
1.548805E-6	-48.029953
1.54885E-6	-48.032713
1.548895E-6	-48.046539
1.54894E-6	-48.041003
1.548985E-6	-48.043771
1.54903E-6	-48.043771
1.549075E-6	-48.032713
1.54912E-6	-48.029953
1.549165E-6	-48.029953
1.54921E-6	-48.007935
1.549255E-6	-47.991495
1.5493E-6	-47.986029
1.549345E-6	-47.991495
1.54939E-6	-48.007935
1.549435E-6	-48.005191
1.54948E-6	-48.013429
1.549525E-6	-48.010681
1.54957E-6	-48.043771
1.549615E-6	-48.052082
1.54966E-6	-48.08549
1.549705E-6	-48.093882
1.54975E-6	-48.074325
1.549795E-6	-48.06319
1.54984E-6	-48.038238
1.549885E-6	-47.856861
1.54993E-6	-43.692671
1.549975E-6	-36.280091
1.55002E-6	-32.85335
1.550065E-6	-31.748336
1.55011E-6	-31.573284
1.550155E-6	-31.53601
1.5502E-6	-31.519957
1.550245E-6	-31.558336
1.55029E-6	-32.353756
1.550335E-6	-35.162701
1.55038E-6	-40.849169
1.550425E-6	-46.873996
1.55047E-6	-47.923656
1.550515E-6	-48.06041
1.55056E-6	-48.074325
1.550605E-6	-48.068754
1.55065E-6	-48.093882
1.550695E-6	-48.107905
1.55074E-6	-48.091083
1.550785E-6	-48.052082
1.55083E-6	-48.032713
1.550875E-6	-48.027194
1.55092E-6	-48.043771
1.550965E-6	-48.038238
1.55101E-6	-48.043771
1.551055E-6	-48.032713
1.5511E-6	-48.035475
1.551145E-6	-48.06041
1.55119E-6	-48.091083
1.551235E-6	-48.107905
1.55128E-6	-48.107905
1.551325E-6	-48.107905
1.55137E-6	-48.082696
1.551415E-6	-48.091083
1.55146E-6	-48.10229
1.551505E-6	-48.105097
1.55155E-6	-48.08549
1.551595E-6	-48.057633
1.55164E-6	-48.024438
1.551685E-6	-48.032713
1.55173E-6	-48.038238
1.551775E-6	-48.043771
1.55182E-6	-48.046539
1.551865E-6	-48.029953
1.55191E-6	-48.041003
1.551955E-6	-48.068754
1.552E-6	-48.099486
1.552045E-6	-48.099486
1.55209E-6	-48.096683
1.552135E-6	-48.08549
1.55218E-6	-48.08549
1.552225E-6	-48.099486
1.55227E-6	-48.08549
1.552315E-6	-48.10229
1.55236E-6	-48.071539
1.552405E-6	-48.027194
1.55245E-6	-48.024438
1.552495E-6	-48.021683
1.55254E-6	-48.038238
1.552585E-6	-48.021683
1.55263E-6	-48.024438
1.552675E-6	-48.010681
1.55272E-6	-48.021683
1.552765E-6	-48.06041
1.55281E-6	-48.077114
1.552855E-6	-48.093882
1.5529E-6	-48.079904
1.552945E-6	-48.071539
1.55299E-6	-48.093882
1.553035E-6	-48.088285
1.55308E-6	-48.099486
1.553125E-6	-48.065971
1.55317E-6	-48.046539
1.553215E-6	-48.024438
1.55326E-6	-48.024438
1.553305E-6	-48.016179
1.55335E-6	-48.013429
1.553395E-6	-48.007935
1.55344E-6	-48.007935
1.553485E-6	-48.010681
1.55353E-6	-48.029953
1.553575E-6	-48.057633
1.55362E-6	-48.082696
1.553665E-6	-48.077114
1.55371E-6	-48.071539
1.553755E-6	-48.079904
1.5538E-6	-48.079904
1.553845E-6	-48.077114
1.55389E-6	-48.08549
1.553935E-6	-48.057633
1.55398E-6	-48.043771
1.554025E-6	-48.021683
1.55407E-6	-48.035475
1.554115E-6	-48.016179
1.55416E-6	-48.002448
1.554205E-6	-47.991495
1.55425E-6	-48.002448
1.554295E-6	-48.013429
1.55434E-6	-48.021683
1.554385E-6	-48.054857
1.55443E-6	-48.068754
1.554475E-6	-48.065971
1.55452E-6	-48.065971
1.554565E-6	-48.082696
1.55461E-6	-48.077114
1.554655E-6	-48.065971
1.5547E-6	-48.057633
1.554745E-6	-48.04931
1.55479E-6	-48.041003
1.554835E-6	-48.016179
1.55488E-6	-48.010681
1.554925E-6	-48.007935
1.55497E-6	-47.986029
1.555015E-6	-47.972393
1.55506E-6	-47.986029
1.555105E-6	-48.005191
1.55515E-6	-48.007935
1.555195E-6	-48.029953
1.55524E-6	-48.046539
1.555285E-6	-48.052082
1.55533E-6	-48.071539
1.555375E-6	-48.082696
1.55542E-6	-48.071539
1.555465E-6	-48.071539
1.55551E-6	-48.068754
1.555555E-6	-48.06319
1.5556E-6	-48.032713
1.555645E-6	-48.007935
1.55569E-6	-48.002448
1.555735E-6	-47.991495
1.55578E-6	-47.980569
1.555825E-6	-47.996968
1.55587E-6	-47.996968
1.555915E-6	-47.999707
1.55596E-6	-48.01893
1.556005E-6	-48.041003
1.55605E-6	-48.074325
1.556095E-6	-48.08549
1.55614E-6	-48.08549
1.556185E-6	-48.088285
1.55623E-6	-48.08549
1.556275E-6	-48.082696
1.55632E-6	-48.093882
1.556365E-6	-48.068754
1.55641E-6	-48.04931
1.556455E-6	-48.016179
1.5565E-6	-48.024438
1.556545E-6	-48.005191
1.55659E-6	-48.013429
1.556635E-6	-48.024438
1.55668E-6	-48.027194
1.556725E-6	-48.01893
1.55677E-6	-48.035475
1.556815E-6	-48.06319
1.55686E-6	-48.110715
1.556905E-6	-48.116341
1.55695E-6	-48.124793
1.556995E-6	-48.121974
1.55704E-6	-48.113527
1.557085E-6	-48.119156
1.55713E-6	-48.124793
1.557175E-6	-48.121974
1.55722E-6	-48.093882
1.557265E-6	-48.077114
1.55731E-6	-48.054857
1.557355E-6	-48.071539
1.5574E-6	-48.082696
1.557445E-6	-48.093882
1.55749E-6	-48.08549
1.557535E-6	-48.074325
1.55758E-6	-48.107905
1.557625E-6	-48.138916
1.55767E-6	-48.173001
1.557715E-6	-48.210231
1.55776E-6	-48.193008
1.557805E-6	-48.207355
1.55785E-6	-48.210231
1.557895E-6	-48.204482
1.55794E-6	-48.23041
1.557985E-6	-48.210231
1.55803E-6	-48.187282
1.558075E-6	-48.150248
1.55812E-6	-48.147412
1.558165E-6	-48.158766
1.55821E-6	-48.16161
1.558255E-6	-48.181564
1.5583E-6	-48.178708
1.558345E-6	-48.181564
1.55839E-6	-48.193008
1.558435E-6	-48.247782
1.55848E-6	-48.291518
1.558525E-6	-48.306195
1.55857E-6	-48.300318
1.558615E-6	-48.309136
1.55866E-6	-48.315025
1.558705E-6	-48.350526
1.55875E-6	-48.33866
1.558795E-6	-48.344589
1.55884E-6	-48.300318
1.558885E-6	-48.27689
1.55893E-6	-48.288588
1.558975E-6	-48.31208
1.55902E-6	-48.306195
1.559065E-6	-48.326827
1.55911E-6	-48.320922
1.559155E-6	-48.33866
1.5592E-6	-48.37137
1.559245E-6	-48.419392
1.55929E-6	-48.452718
1.559335E-6	-48.458805
1.55938E-6	-48.4649
1.559425E-6	-48.477117
1.55947E-6	-48.507809
1.559515E-6	-48.520147
1.55956E-6	-48.535619
1.559605E-6	-48.520147
1.55965E-6	-48.483238
1.559695E-6	-48.474059
1.55974E-6	-48.495506
1.559785E-6	-48.513973
1.55983E-6	-48.520147
1.559875E-6	-48.520147
1.55992E-6	-48.517059
1.559965E-6	-48.548036
1.56001E-6	-48.588639
1.560055E-6	-48.629625
1.5601E-6	-48.687022
1.560145E-6	-48.677403
1.56019E-6	-48.699881
1.560235E-6	-48.699881
1.56028E-6	-48.732194
1.560325E-6	-48.748442
1.56037E-6	-48.771291
1.560415E-6	-48.738686
1.56046E-6	-48.732194
1.560505E-6	-48.722475
1.56055E-6	-48.741935
1.560595E-6	-48.748442
1.56064E-6	-48.751699
1.560685E-6	-48.758219
1.56073E-6	-48.758219
1.560775E-6	-48.804142
1.56082E-6	-48.837244
1.560865E-6	-48.87395
1.56091E-6	-48.924509
1.560955E-6	-48.9279
1.561E-6	-48.955129
1.561045E-6	-48.979095
1.56109E-6	-48.989406
1.561135E-6	-49.017025
1.56118E-6	-49.017025
1.561225E-6	-49.010104
1.56127E-6	-49.010104
1.561315E-6	-49.006647
1.56136E-6	-49.006647
1.561405E-6	-49.017025
1.56145E-6	-49.0309
1.561495E-6	-49.058784
1.56154E-6	-49.062282
1.561585E-6	-49.108016
1.56163E-6	-49.129288
1.561675E-6	-49.175737
1.56172E-6	-49.215432
1.561765E-6	-49.233596
1.56181E-6	-49.259153
1.561855E-6	-49.273825
1.5619E-6	-49.299621
1.561945E-6	-49.314431
1.56199E-6	-49.30702
1.562035E-6	-49.318141
1.56208E-6	-49.325572
1.562125E-6	-49.314431
1.56217E-6	-49.314431
1.562215E-6	-49.34047
1.56226E-6	-49.333014
1.562305E-6	-49.362914
1.56235E-6	-49.381707
1.562395E-6	-49.411945
1.56244E-6	-49.438577
1.562485E-6	-49.484616
1.56253E-6	-49.515582
1.562575E-6	-49.542859
1.56262E-6	-49.578184
1.562665E-6	-49.605859
1.56271E-6	-49.625735
1.562755E-6	-49.649707
1.5628E-6	-49.645703
1.562845E-6	-49.657727
1.56289E-6	-49.661743
1.562935E-6	-49.661743
1.56298E-6	-49.661743
1.563025E-6	-49.673812
1.56307E-6	-49.677843
1.563115E-6	-49.702105
1.56316E-6	-49.742846
1.563205E-6	-49.738755
1.56325E-6	-49.775716
1.563295E-6	-49.821323
1.56334E-6	-49.875846
1.563385E-6	-49.918258
1.56343E-6	-49.93962
1.563475E-6	-49.965395
