Wavelength (nm)	Power (dBm)
1.525E-6	-46.621416
1.525045E-6	-46.513058
1.52509E-6	-46.432095
1.525135E-6	-46.324577
1.52518E-6	-46.226937
1.525225E-6	-46.115435
1.52527E-6	-46.043242
1.525315E-6	-45.914209
1.52536E-6	-45.853609
1.525405E-6	-45.751184
1.52545E-6	-45.659104
1.525495E-6	-45.556429
1.52554E-6	-45.44546
1.525585E-6	-45.37153
1.52563E-6	-45.26513
1.525675E-6	-45.168408
1.52572E-6	-45.084982
1.525765E-6	-45.011383
1.52581E-6	-44.962093
1.525855E-6	-44.849213
1.5259E-6	-44.795165
1.525945E-6	-44.753443
1.52599E-6	-44.691602
1.526035E-6	-44.616777
1.52608E-6	-44.548166
1.526125E-6	-44.489161
1.52617E-6	-44.40213
1.526215E-6	-44.321505
1.52626E-6	-44.251588
1.526305E-6	-44.171415
1.52635E-6	-44.08379
1.526395E-6	-43.997897
1.52644E-6	-43.924378
1.526485E-6	-43.870043
1.52653E-6	-43.8122
1.526575E-6	-43.749964
1.52662E-6	-43.711004
1.526665E-6	-43.680492
1.52671E-6	-43.634118
1.526755E-6	-43.612113
1.5268E-6	-43.568435
1.526845E-6	-43.536943
1.52689E-6	-43.447655
1.526935E-6	-43.396089
1.52698E-6	-43.364875
1.527025E-6	-43.309622
1.52707E-6	-43.227582
1.527115E-6	-43.165927
1.52716E-6	-43.087416
1.527205E-6	-43.018995
1.52725E-6	-43.012907
1.527295E-6	-42.94564
1.52734E-6	-42.946495
1.527385E-6	-42.894596
1.52743E-6	-42.880241
1.527475E-6	-42.884458
1.52752E-6	-42.892059
1.527565E-6	-42.876871
1.52761E-6	-42.842473
1.527655E-6	-42.804201
1.5277E-6	-42.772016
1.527745E-6	-42.743333
1.52779E-6	-42.717274
1.527835E-6	-42.642415
1.52788E-6	-42.589272
1.527925E-6	-42.496459
1.52797E-6	-42.479516
1.528015E-6	-42.484899
1.52806E-6	-42.422245
1.528105E-6	-42.414666
1.52815E-6	-42.404832
1.528195E-6	-42.404832
1.52824E-6	-42.445825
1.528285E-6	-42.471836
1.52833E-6	-42.474906
1.528375E-6	-42.471836
1.52842E-6	-42.437444
1.528465E-6	-42.419212
1.52851E-6	-42.413152
1.528555E-6	-42.386737
1.5286E-6	-42.347786
1.528645E-6	-42.275316
1.52869E-6	-42.228633
1.528735E-6	-42.161679
1.52878E-6	-42.20115
1.528825E-6	-42.162393
1.52887E-6	-42.168829
1.528915E-6	-42.153827
1.52896E-6	-42.153827
1.529005E-6	-42.201871
1.52905E-6	-42.25483
1.529095E-6	-42.272384
1.52914E-6	-42.275316
1.529185E-6	-42.257751
1.52923E-6	-42.232988
1.529275E-6	-42.236621
1.52932E-6	-42.243896
1.529365E-6	-42.221384
1.52941E-6	-42.142432
1.529455E-6	-42.092927
1.5295E-6	-42.062096
1.529545E-6	-42.062096
1.52959E-6	-42.063493
1.529635E-6	-42.040505
1.52968E-6	-42.059304
1.529725E-6	-42.048154
1.52977E-6	-42.108425
1.529815E-6	-42.163108
1.52986E-6	-42.201871
1.529905E-6	-42.219935
1.52995E-6	-42.198268
1.529995E-6	-42.197547
1.53004E-6	-42.19035
1.530085E-6	-42.222833
1.53013E-6	-42.181011
1.530175E-6	-42.14101
1.53022E-6	-42.074682
1.530265E-6	-42.051635
1.53031E-6	-42.028017
1.530355E-6	-42.046762
1.5304E-6	-42.052332
1.530445E-6	-42.038421
1.53049E-6	-42.04885
1.530535E-6	-42.096445
1.53058E-6	-42.158108
1.530625E-6	-42.219211
1.53067E-6	-42.235167
1.530715E-6	-42.233714
1.53076E-6	-42.234441
1.530805E-6	-42.262136
1.53085E-6	-42.267989
1.530895E-6	-42.248995
1.53094E-6	-42.218487
1.530985E-6	-42.14101
1.53103E-6	-42.115488
1.531075E-6	-42.128939
1.53112E-6	-42.136035
1.531165E-6	-42.142432
1.53121E-6	-42.146702
1.531255E-6	-42.147414
1.5313E-6	-42.178141
1.531345E-6	-42.25629
1.53139E-6	-42.303273
1.531435E-6	-42.355997
1.53148E-6	-42.361978
1.531525E-6	-42.379219
1.53157E-6	-42.410881
1.531615E-6	-42.417696
1.53166E-6	-42.398792
1.531705E-6	-42.393514
1.53175E-6	-42.360482
1.531795E-6	-42.304012
1.53184E-6	-42.321765
1.531885E-6	-42.329926
1.53193E-6	-42.336615
1.531975E-6	-42.344059
1.53202E-6	-42.382225
1.532065E-6	-42.394267
1.53211E-6	-42.481822
1.532155E-6	-42.552378
1.5322E-6	-42.600323
1.532245E-6	-42.624098
1.53229E-6	-42.638426
1.532335E-6	-42.685724
1.53238E-6	-42.705112
1.532425E-6	-42.705112
1.53247E-6	-42.701875
1.532515E-6	-42.693792
1.53256E-6	-42.655202
1.532605E-6	-42.640819
1.53265E-6	-42.656803
1.532695E-6	-42.654402
1.53274E-6	-42.685724
1.532785E-6	-42.714839
1.53283E-6	-42.743333
1.532875E-6	-42.791794
1.53292E-6	-42.882771
1.532965E-6	-42.959353
1.53301E-6	-43.007695
1.533055E-6	-43.055703
1.5331E-6	-43.081232
1.533145E-6	-43.122927
1.53319E-6	-43.130957
1.533235E-6	-43.144374
1.53328E-6	-43.138108
1.533325E-6	-43.115802
1.53337E-6	-43.1078
1.533415E-6	-43.108688
1.53346E-6	-43.121145
1.533505E-6	-43.156035
1.53355E-6	-43.182162
1.533595E-6	-43.225756
1.53364E-6	-43.270713
1.533685E-6	-43.350761
1.53373E-6	-43.453422
1.533775E-6	-43.517376
1.53382E-6	-43.574366
1.533865E-6	-43.613111
1.53391E-6	-43.650192
1.533955E-6	-43.668346
1.534E-6	-43.707943
1.534045E-6	-43.698774
1.53409E-6	-43.718155
1.534135E-6	-43.670368
1.53418E-6	-43.693688
1.534225E-6	-43.697756
1.53427E-6	-43.72327
1.534315E-6	-43.749964
1.53436E-6	-43.810111
1.534405E-6	-43.854191
1.53445E-6	-43.907258
1.534495E-6	-44.004444
1.53454E-6	-44.10609
1.534585E-6	-44.161214
1.53463E-6	-44.225082
1.534675E-6	-44.243504
1.53472E-6	-44.270123
1.534765E-6	-44.298074
1.53481E-6	-44.364003
1.534855E-6	-44.352156
1.5349E-6	-44.302751
1.534945E-6	-44.308603
1.53499E-6	-44.309774
1.535035E-6	-44.350973
1.53508E-6	-44.392567
1.535125E-6	-44.420119
1.53517E-6	-44.466025
1.535215E-6	-44.516106
1.53526E-6	-44.596705
1.535305E-6	-44.708264
1.53535E-6	-44.810914
1.535395E-6	-44.847887
1.53544E-6	-44.87449
1.535485E-6	-44.92414
1.53553E-6	-44.921441
1.535575E-6	-44.985299
1.53562E-6	-44.978461
1.535665E-6	-44.967542
1.53571E-6	-44.914703
1.535755E-6	-44.920093
1.5358E-6	-44.944431
1.535845E-6	-44.985299
1.53589E-6	-45.019653
1.535935E-6	-45.05289
1.53598E-6	-45.080783
1.536025E-6	-45.148467
1.53607E-6	-45.252012
1.536115E-6	-45.358086
1.53616E-6	-45.404567
1.536205E-6	-45.427238
1.53625E-6	-45.465288
1.536295E-6	-45.491353
1.53634E-6	-45.52842
1.536385E-6	-45.55799
1.53643E-6	-45.531523
1.536475E-6	-45.468346
1.53652E-6	-45.433304
1.536565E-6	-45.433304
1.53661E-6	-45.480601
1.536655E-6	-45.499049
1.5367E-6	-45.517576
1.536745E-6	-45.525319
1.53679E-6	-45.57677
1.536835E-6	-45.665502
1.53688E-6	-45.779028
1.536925E-6	-45.845258
1.53697E-6	-45.873715
1.537015E-6	-45.878756
1.53706E-6	-45.90405
1.537105E-6	-45.939711
1.53715E-6	-45.970512
1.537195E-6	-45.944829
1.53724E-6	-45.890541
1.537285E-6	-45.825283
1.53733E-6	-45.803746
1.537375E-6	-45.828606
1.53742E-6	-45.841923
1.537465E-6	-45.853609
1.53751E-6	-45.83859
1.537555E-6	-45.868679
1.5376E-6	-45.943122
1.537645E-6	-46.050233
1.53769E-6	-46.13501
1.537735E-6	-46.151092
1.53778E-6	-46.156466
1.537825E-6	-46.172627
1.53787E-6	-46.196078
1.537915E-6	-46.20332
1.53796E-6	-46.216021
1.538005E-6	-46.13501
1.53805E-6	-46.067759
1.538095E-6	-45.992894
1.53814E-6	-46.015392
1.538185E-6	-46.015392
1.53823E-6	-46.022337
1.538275E-6	-46.015392
1.53832E-6	-46.0206
1.538365E-6	-46.044989
1.53841E-6	-46.115435
1.538455E-6	-46.214204
1.5385E-6	-46.274562
1.538545E-6	-46.285627
1.53859E-6	-46.287474
1.538635E-6	-46.293019
1.53868E-6	-46.302277
1.538725E-6	-46.317131
1.53877E-6	-46.26904
1.538815E-6	-46.190655
1.53886E-6	-46.120765
1.538905E-6	-46.090649
1.53895E-6	-46.064248
1.538995E-6	-46.06074
1.53904E-6	-46.067759
1.539085E-6	-46.058987
1.53913E-6	-46.067759
1.539175E-6	-46.099485
1.53922E-6	-46.214204
1.539265E-6	-46.287474
1.53931E-6	-46.304131
1.539355E-6	-46.309698
1.5394E-6	-46.326441
1.539445E-6	-46.309698
1.53949E-6	-46.307841
1.539535E-6	-46.293019
1.53958E-6	-46.216021
1.539625E-6	-46.127882
1.53967E-6	-46.080069
1.539715E-6	-46.043242
1.53976E-6	-46.036263
1.539805E-6	-46.011923
1.53985E-6	-45.999804
1.539895E-6	-46.010189
1.53994E-6	-46.038007
1.539985E-6	-46.088884
1.54003E-6	-46.17983
1.540075E-6	-46.232406
1.54012E-6	-46.241536
1.540165E-6	-46.239708
1.54021E-6	-46.245193
1.540255E-6	-46.225116
1.5403E-6	-46.199698
1.540345E-6	-46.178028
1.54039E-6	-46.104795
1.540435E-6	-46.004993
1.54048E-6	-45.938006
1.540525E-6	-45.9176
1.54057E-6	-45.89729
1.540615E-6	-45.920995
1.54066E-6	-45.905741
1.540705E-6	-45.912514
1.54075E-6	-45.920995
1.540795E-6	-46.010189
1.54084E-6	-46.097716
1.540885E-6	-46.124322
1.54093E-6	-46.147513
1.540975E-6	-46.117211
1.54102E-6	-46.111886
1.541065E-6	-46.108339
1.54111E-6	-46.097716
1.541155E-6	-46.03452
1.5412E-6	-45.938006
1.541245E-6	-45.848596
1.54129E-6	-45.802094
1.541335E-6	-45.772461
1.54138E-6	-45.762628
1.541425E-6	-45.779028
1.54147E-6	-45.777385
1.541515E-6	-45.772461
1.54156E-6	-45.825283
1.541605E-6	-45.927791
1.54165E-6	-45.979106
1.541695E-6	-46.017127
1.54174E-6	-46.010189
1.541785E-6	-45.999804
1.54183E-6	-45.979106
1.541875E-6	-45.972229
1.54192E-6	-45.953373
1.541965E-6	-45.895602
1.54201E-6	-45.780672
1.542055E-6	-45.70894
1.5421E-6	-45.668705
1.542145E-6	-45.647929
1.54219E-6	-45.67191
1.542235E-6	-45.668705
1.54228E-6	-45.655908
1.542325E-6	-45.684754
1.54237E-6	-45.752817
1.542415E-6	-45.872036
1.54246E-6	-45.898979
1.542505E-6	-45.905741
1.54255E-6	-45.920995
1.542595E-6	-45.898979
1.54264E-6	-45.902359
1.542685E-6	-45.902359
1.54273E-6	-45.8603
1.542775E-6	-45.775743
1.54282E-6	-45.667103
1.542865E-6	-45.598784
1.54291E-6	-45.590909
1.542955E-6	-45.575202
1.543E-6	-45.598784
1.543045E-6	-45.595632
1.54309E-6	-45.587763
1.543135E-6	-45.628839
1.54318E-6	-45.723516
1.543225E-6	-45.83859
1.54327E-6	-45.861975
1.543315E-6	-45.867002
1.54336E-6	-45.853609
1.543405E-6	-45.845258
1.54345E-6	-45.855281
1.543495E-6	-45.848596
1.54354E-6	-45.790546
1.543585E-6	-45.692801
1.54363E-6	-45.590909
1.543675E-6	-45.564241
1.54372E-6	-45.57677
1.543765E-6	-45.564241
1.54381E-6	-45.570501
1.543855E-6	-45.564241
1.5439E-6	-45.570501
1.543945E-6	-45.646335
1.54399E-6	-45.767541
1.544035E-6	-45.846927
1.54408E-6	-45.861975
1.544125E-6	-45.851937
1.54417E-6	-45.835259
1.544215E-6	-45.858626
1.54426E-6	-45.8603
1.544305E-6	-45.841923
1.54435E-6	-45.77082
1.544395E-6	-45.657505
1.54444E-6	-45.590909
1.544485E-6	-45.556429
1.54453E-6	-45.594057
1.544575E-6	-45.581478
1.54462E-6	-45.58462
1.544665E-6	-45.57677
1.54471E-6	-45.611413
1.544755E-6	-45.721894
1.5448E-6	-45.830268
1.544845E-6	-45.8603
1.54489E-6	-45.870357
1.544935E-6	-45.865326
1.54498E-6	-45.868679
1.545025E-6	-45.818645
1.54507E-6	-45.415132
1.545115E-6	-39.901244
1.54516E-6	-29.863203
1.545205E-6	-24.863829
1.54525E-6	-22.846653
1.545295E-6	-22.419212
1.54534E-6	-22.36123
1.545385E-6	-22.314359
1.54543E-6	-22.354503
1.545475E-6	-22.811663
1.54552E-6	-24.971634
1.545565E-6	-29.93962
1.54561E-6	-39.299621
1.545655E-6	-44.496493
1.5457E-6	-45.644741
1.545745E-6	-45.870357
1.54579E-6	-45.9176
1.545835E-6	-45.941416
1.54588E-6	-45.934598
1.545925E-6	-45.887171
1.54597E-6	-45.780672
1.546015E-6	-45.702477
1.54606E-6	-45.686362
1.546105E-6	-45.660702
1.54615E-6	-45.667103
1.546195E-6	-45.651119
1.54624E-6	-45.659104
1.546285E-6	-45.694412
1.54633E-6	-45.764265
1.546375E-6	-45.873715
1.54642E-6	-45.955084
1.546465E-6	-45.975667
1.54651E-6	-45.985995
1.546555E-6	-46.001533
1.5466E-6	-46.013657
1.546645E-6	-46.013657
1.54669E-6	-45.991168
1.546735E-6	-45.931193
1.54678E-6	-45.821963
1.546825E-6	-45.75445
1.54687E-6	-45.728386
1.546915E-6	-45.736514
1.54696E-6	-45.731635
1.547005E-6	-45.731635
1.54705E-6	-45.741399
1.547095E-6	-45.774102
1.54714E-6	-45.870357
1.547185E-6	-45.970512
1.54723E-6	-46.038007
1.547275E-6	-46.051982
1.54732E-6	-46.066003
1.547365E-6	-46.080069
1.54741E-6	-46.088884
1.547455E-6	-46.074789
1.5475E-6	-46.046736
1.547545E-6	-45.965363
1.54759E-6	-45.872036
1.547635E-6	-45.812017
1.54768E-6	-45.788899
1.547725E-6	-45.777385
1.54777E-6	-45.783961
1.547815E-6	-45.797141
1.54786E-6	-45.823623
1.547905E-6	-45.855281
1.54795E-6	-45.944829
1.547995E-6	-46.055483
1.54804E-6	-46.111886
1.548085E-6	-46.140364
1.54813E-6	-46.147513
1.548175E-6	-46.151092
1.54822E-6	-46.140364
1.548265E-6	-46.136794
1.54831E-6	-46.099485
1.548355E-6	-46.027554
1.5484E-6	-45.905741
1.548445E-6	-45.861975
1.54849E-6	-45.84359
1.548535E-6	-45.848596
1.54858E-6	-45.846927
1.548625E-6	-45.86365
1.54867E-6	-45.877075
1.548715E-6	-45.926091
1.54876E-6	-46.017127
1.548805E-6	-46.136794
1.54885E-6	-46.17983
1.548895E-6	-46.19427
1.54894E-6	-46.210573
1.548985E-6	-46.19427
1.54903E-6	-46.199698
1.549075E-6	-46.181632
1.54912E-6	-46.151092
1.549165E-6	-46.041496
1.54921E-6	-45.934598
1.549255E-6	-45.890541
1.5493E-6	-45.88212
1.549345E-6	-45.887171
1.54939E-6	-45.890541
1.549435E-6	-45.89729
1.54948E-6	-45.905741
1.549525E-6	-45.965363
1.54957E-6	-46.07303
1.549615E-6	-46.185239
1.54966E-6	-46.230582
1.549705E-6	-46.237881
1.54975E-6	-46.223296
1.549795E-6	-46.181632
1.54984E-6	-46.046736
1.549885E-6	-44.979828
1.54993E-6	-35.001755
1.549975E-6	-26.861328
1.55002E-6	-23.448616
1.550065E-6	-22.383728
1.55011E-6	-22.226457
1.550155E-6	-22.183164
1.5502E-6	-22.200429
1.550245E-6	-22.247537
1.55029E-6	-23.139002
1.550335E-6	-26.192462
1.55038E-6	-32.934529
1.550425E-6	-42.034257
1.55047E-6	-45.43027
1.550515E-6	-46.078309
1.55056E-6	-46.188849
1.550605E-6	-46.214204
1.55065E-6	-46.225116
1.550695E-6	-46.232406
1.55074E-6	-46.140364
1.550785E-6	-46.011923
1.55083E-6	-45.931193
1.550875E-6	-45.909126
1.55092E-6	-45.902359
1.550965E-6	-45.905741
1.55101E-6	-45.900669
1.551055E-6	-45.898979
1.5511E-6	-45.914209
1.551145E-6	-46.015392
1.55119E-6	-46.154674
1.551235E-6	-46.223296
1.55128E-6	-46.241536
1.551325E-6	-46.236056
1.55137E-6	-46.237881
1.551415E-6	-46.230582
1.55146E-6	-46.243364
1.551505E-6	-46.216021
1.55155E-6	-46.111886
1.551595E-6	-45.975667
1.55164E-6	-45.895602
1.551685E-6	-45.883803
1.55173E-6	-45.887171
1.551775E-6	-45.887171
1.55182E-6	-45.880438
1.551865E-6	-45.870357
1.55191E-6	-45.909126
1.551955E-6	-46.018863
1.552E-6	-46.161846
1.552045E-6	-46.221476
1.55209E-6	-46.221476
1.552135E-6	-46.223296
1.55218E-6	-46.221476
1.552225E-6	-46.221476
1.55227E-6	-46.23423
1.552315E-6	-46.188849
1.55236E-6	-46.066003
1.552405E-6	-45.914209
1.55245E-6	-45.875395
1.552495E-6	-45.855281
1.55254E-6	-45.867002
1.552585E-6	-45.845258
1.55263E-6	-45.841923
1.552675E-6	-45.850267
1.55272E-6	-45.89729
1.552765E-6	-46.031036
1.55281E-6	-46.147513
1.552855E-6	-46.20332
1.5529E-6	-46.197888
1.552945E-6	-46.197888
1.55299E-6	-46.208759
1.553035E-6	-46.214204
1.55308E-6	-46.197888
1.553125E-6	-46.149302
1.55317E-6	-46.010189
1.553215E-6	-45.890541
1.55326E-6	-45.841923
1.553305E-6	-45.831931
1.55335E-6	-45.823623
1.553395E-6	-45.810362
1.55344E-6	-45.798792
1.553485E-6	-45.818645
1.55353E-6	-45.883803
1.553575E-6	-46.018863
1.55362E-6	-46.136794
1.553665E-6	-46.178028
1.55371E-6	-46.181632
1.553755E-6	-46.190655
1.5538E-6	-46.192462
1.553845E-6	-46.188849
1.55389E-6	-46.178028
1.553935E-6	-46.11366
1.55398E-6	-45.979106
1.554025E-6	-45.86365
1.55407E-6	-45.818645
1.554115E-6	-45.795491
1.55416E-6	-45.785606
1.554205E-6	-45.780672
1.55425E-6	-45.779028
1.554295E-6	-45.803746
1.55434E-6	-45.875395
1.554385E-6	-46.003263
1.55443E-6	-46.120765
1.554475E-6	-46.154674
1.55452E-6	-46.172627
1.554565E-6	-46.181632
1.55461E-6	-46.181632
1.554655E-6	-46.165437
1.5547E-6	-46.154674
1.554745E-6	-46.076548
1.55479E-6	-45.948245
1.554835E-6	-45.833595
1.55488E-6	-45.785606
1.554925E-6	-45.767541
1.55497E-6	-45.751184
1.555015E-6	-45.749551
1.55506E-6	-45.762628
1.555105E-6	-45.780672
1.55515E-6	-45.8603
1.555195E-6	-45.992894
1.55524E-6	-46.099485
1.555285E-6	-46.138579
1.55533E-6	-46.163641
1.555375E-6	-46.169031
1.55542E-6	-46.154674
1.555465E-6	-46.151092
1.55551E-6	-46.127882
1.555555E-6	-46.062494
1.5556E-6	-45.919297
1.555645E-6	-45.812017
1.55569E-6	-45.765903
1.555735E-6	-45.75445
1.55578E-6	-45.744658
1.555825E-6	-45.759355
1.55587E-6	-45.762628
1.555915E-6	-45.77082
1.55596E-6	-45.851937
1.556005E-6	-45.99462
1.55605E-6	-46.11366
1.556095E-6	-46.160052
1.55614E-6	-46.169031
1.556185E-6	-46.170829
1.55623E-6	-46.172627
1.556275E-6	-46.167233
1.55632E-6	-46.147513
1.556365E-6	-46.078309
1.55641E-6	-45.931193
1.556455E-6	-45.810362
1.5565E-6	-45.765903
1.556545E-6	-45.756084
1.55659E-6	-45.757719
1.556635E-6	-45.780672
1.55668E-6	-45.777385
1.556725E-6	-45.782316
1.55677E-6	-45.875395
1.556815E-6	-46.029295
1.55686E-6	-46.156466
1.556905E-6	-46.20332
1.55695E-6	-46.210573
1.556995E-6	-46.20332
1.55704E-6	-46.196078
1.557085E-6	-46.206945
1.55713E-6	-46.197888
1.557175E-6	-46.127882
1.55722E-6	-45.970512
1.557265E-6	-45.858626
1.55731E-6	-45.810362
1.557355E-6	-45.810362
1.5574E-6	-45.825283
1.557445E-6	-45.833595
1.55749E-6	-45.840256
1.557535E-6	-45.851937
1.55758E-6	-45.948245
1.557625E-6	-46.11366
1.55767E-6	-46.243364
1.557715E-6	-46.280091
1.55776E-6	-46.287474
1.557805E-6	-46.281935
1.55785E-6	-46.289321
1.557895E-6	-46.29672
1.55794E-6	-46.293019
1.557985E-6	-46.212388
1.55803E-6	-46.046736
1.558075E-6	-45.932895
1.55812E-6	-45.900669
1.558165E-6	-45.907433
1.55821E-6	-45.924392
1.558255E-6	-45.934598
1.5583E-6	-45.934598
1.558345E-6	-45.949953
1.55839E-6	-46.055483
1.558435E-6	-46.221476
1.55848E-6	-46.362001
1.558525E-6	-46.401645
1.55857E-6	-46.416844
1.558615E-6	-46.407338
1.55866E-6	-46.424463
1.558705E-6	-46.437829
1.55875E-6	-46.445485
1.558795E-6	-46.358244
1.55884E-6	-46.197888
1.558885E-6	-46.08712
1.55893E-6	-46.069515
1.558975E-6	-46.074789
1.55902E-6	-46.08712
1.559065E-6	-46.106567
1.55911E-6	-46.099485
1.559155E-6	-46.129663
1.5592E-6	-46.241536
1.559245E-6	-46.418747
1.55929E-6	-46.554113
1.559335E-6	-46.583677
1.55938E-6	-46.595559
1.559425E-6	-46.605486
1.55947E-6	-46.621416
1.559515E-6	-46.649435
1.55956E-6	-46.635403
1.559605E-6	-46.552149
1.55965E-6	-46.395959
1.559695E-6	-46.302277
1.55974E-6	-46.285627
1.559785E-6	-46.298572
1.55983E-6	-46.302277
1.559875E-6	-46.313413
1.55992E-6	-46.322715
1.559965E-6	-46.367642
1.56001E-6	-46.482037
1.560055E-6	-46.655462
1.5601E-6	-46.784016
1.560145E-6	-46.819367
1.56019E-6	-46.844495
1.560235E-6	-46.85922
1.56028E-6	-46.873996
1.560325E-6	-46.895191
1.56037E-6	-46.888822
1.560415E-6	-46.808939
1.56046E-6	-46.661499
1.560505E-6	-46.569855
1.56055E-6	-46.552149
1.560595E-6	-46.563945
1.56064E-6	-46.567884
1.560685E-6	-46.577748
1.56073E-6	-46.609463
1.560775E-6	-46.637404
1.56082E-6	-46.753061
1.560865E-6	-46.933606
1.56091E-6	-47.068585
1.560955E-6	-47.113037
1.561E-6	-47.128704
1.561045E-6	-47.146678
1.56109E-6	-47.185121
1.561135E-6	-47.196493
1.56118E-6	-47.191941
1.561225E-6	-47.121983
1.56127E-6	-46.996219
1.561315E-6	-46.893067
1.56136E-6	-46.882461
1.561405E-6	-46.88458
1.56145E-6	-46.90157
1.561495E-6	-46.914356
1.56154E-6	-46.933606
1.561585E-6	-46.978856
1.56163E-6	-47.081873
1.561675E-6	-47.249191
1.56172E-6	-47.387371
1.561765E-6	-47.430418
1.56181E-6	-47.464197
1.561855E-6	-47.498241
1.5619E-6	-47.515363
1.561945E-6	-47.530093
1.56199E-6	-47.535014
1.562035E-6	-47.478754
1.56208E-6	-47.356545
1.562125E-6	-47.258422
1.56217E-6	-47.23998
1.562215E-6	-47.23768
1.56226E-6	-47.242281
1.562305E-6	-47.272304
1.56235E-6	-47.309543
1.562395E-6	-47.337683
1.56244E-6	-47.423214
1.562485E-6	-47.587026
1.56253E-6	-47.734001
1.562575E-6	-47.809397
1.56262E-6	-47.848914
1.562665E-6	-47.880789
1.56271E-6	-47.89414
1.562755E-6	-47.9129
1.5628E-6	-47.910215
1.562845E-6	-47.880789
1.56289E-6	-47.770236
1.562935E-6	-47.664962
1.56298E-6	-47.632109
1.563025E-6	-47.627077
1.56307E-6	-47.652297
1.563115E-6	-47.672579
1.56316E-6	-47.708303
1.563205E-6	-47.746907
1.56325E-6	-47.827793
1.563295E-6	-47.983298
1.56334E-6	-48.144578
1.563385E-6	-48.213108
1.56343E-6	-48.27689
