Wavelength (nm)	Power (dBm)
1.525E-6	-49.175737
1.525045E-6	-49.069287
1.52509E-6	-48.985966
1.525135E-6	-48.904215
1.52518E-6	-48.810742
1.525225E-6	-48.693447
1.52527E-6	-48.601209
1.525315E-6	-48.50473
1.52536E-6	-48.428456
1.525405E-6	-48.374356
1.52545E-6	-48.259402
1.525495E-6	-48.16161
1.52554E-6	-48.082696
1.525585E-6	-48.01893
1.52563E-6	-47.94525
1.525675E-6	-47.867479
1.52572E-6	-47.775437
1.525765E-6	-47.700623
1.52581E-6	-47.634627
1.525855E-6	-47.544873
1.5259E-6	-47.490923
1.525945E-6	-47.418418
1.52599E-6	-47.342391
1.526035E-6	-47.274622
1.52608E-6	-47.2262
1.526125E-6	-47.173779
1.52617E-6	-47.092978
1.526215E-6	-47.018021
1.52626E-6	-46.937895
1.526305E-6	-46.893067
1.52635E-6	-46.846595
1.526395E-6	-46.777807
1.52644E-6	-46.728455
1.526485E-6	-46.655462
1.52653E-6	-46.591595
1.526575E-6	-46.5738
1.52662E-6	-46.513058
1.526665E-6	-46.474316
1.52671E-6	-46.409238
1.526755E-6	-46.346993
1.5268E-6	-46.318991
1.526845E-6	-46.278247
1.52689E-6	-46.23423
1.526935E-6	-46.208759
1.52698E-6	-46.111886
1.527025E-6	-46.071273
1.52707E-6	-46.050233
1.527115E-6	-46.011923
1.52716E-6	-45.973948
1.527205E-6	-45.932895
1.52725E-6	-45.892228
1.527295E-6	-45.853609
1.52734E-6	-45.813673
1.527385E-6	-45.782316
1.52743E-6	-45.76918
1.527475E-6	-45.747919
1.52752E-6	-45.68154
1.527565E-6	-45.667103
1.52761E-6	-45.67191
1.527655E-6	-45.616159
1.5277E-6	-45.592483
1.527745E-6	-45.556429
1.52779E-6	-45.531523
1.527835E-6	-45.525319
1.52788E-6	-45.499049
1.527925E-6	-45.479068
1.52797E-6	-45.4546
1.528015E-6	-45.419668
1.52806E-6	-45.404567
1.528105E-6	-45.401554
1.52815E-6	-45.395532
1.528195E-6	-45.362563
1.52824E-6	-45.349147
1.528285E-6	-45.359578
1.52833E-6	-45.331324
1.528375E-6	-45.352125
1.52842E-6	-45.322439
1.528465E-6	-45.292956
1.52851E-6	-45.295895
1.528555E-6	-45.279753
1.5286E-6	-45.298836
1.528645E-6	-45.262212
1.52869E-6	-45.238933
1.528735E-6	-45.236032
1.52878E-6	-45.244741
1.528825E-6	-45.208568
1.52887E-6	-45.252012
1.528915E-6	-45.234582
1.52896E-6	-45.214335
1.529005E-6	-45.210009
1.52905E-6	-45.195619
1.529095E-6	-45.214335
1.52914E-6	-45.214335
1.529185E-6	-45.22011
1.52923E-6	-45.199931
1.529275E-6	-45.194182
1.52932E-6	-45.22734
1.529365E-6	-45.210009
1.52941E-6	-45.184141
1.529455E-6	-45.198493
1.5295E-6	-45.172693
1.529545E-6	-45.169836
1.52959E-6	-45.16698
1.529635E-6	-45.192746
1.52968E-6	-45.188441
1.529725E-6	-45.175552
1.52977E-6	-45.181276
1.529815E-6	-45.189876
1.52986E-6	-45.188441
1.529905E-6	-45.22011
1.52995E-6	-45.195619
1.529995E-6	-45.189876
1.53004E-6	-45.212892
1.530085E-6	-45.204247
1.53013E-6	-45.224447
1.530175E-6	-45.208568
1.53022E-6	-45.214335
1.530265E-6	-45.195619
1.53031E-6	-45.189876
1.530355E-6	-45.199931
1.5304E-6	-45.212892
1.530445E-6	-45.199931
1.53049E-6	-45.208568
1.530535E-6	-45.205687
1.53058E-6	-45.224447
1.530625E-6	-45.244741
1.53067E-6	-45.246194
1.530715E-6	-45.270973
1.53076E-6	-45.249102
1.530805E-6	-45.236032
1.53085E-6	-45.282683
1.530895E-6	-45.273898
1.53094E-6	-45.284149
1.530985E-6	-45.284149
1.53103E-6	-45.260753
1.531075E-6	-45.263671
1.53112E-6	-45.307673
1.531165E-6	-45.291487
1.53121E-6	-45.282683
1.531255E-6	-45.300308
1.5313E-6	-45.306199
1.531345E-6	-45.319482
1.53139E-6	-45.343198
1.531435E-6	-45.343198
1.53148E-6	-45.358086
1.531525E-6	-45.359578
1.53157E-6	-45.382014
1.531615E-6	-45.400047
1.53166E-6	-45.392525
1.531705E-6	-45.389519
1.53175E-6	-45.416644
1.531795E-6	-45.406075
1.53184E-6	-45.421181
1.531885E-6	-45.459177
1.53193E-6	-45.457651
1.531975E-6	-45.468346
1.53202E-6	-45.471407
1.532065E-6	-45.472938
1.53211E-6	-45.534628
1.532155E-6	-45.534628
1.5322E-6	-45.536182
1.532245E-6	-45.542402
1.53229E-6	-45.556429
1.532335E-6	-45.573635
1.53238E-6	-45.605094
1.532425E-6	-45.625666
1.53247E-6	-45.606673
1.532515E-6	-45.646335
1.53256E-6	-45.641556
1.532605E-6	-45.657505
1.53265E-6	-45.678327
1.532695E-6	-45.684754
1.53274E-6	-45.710557
1.532785E-6	-45.723516
1.53283E-6	-45.743028
1.532875E-6	-45.775743
1.53292E-6	-45.812017
1.532965E-6	-45.787252
1.53301E-6	-45.816987
1.533055E-6	-45.825283
1.5331E-6	-45.8603
1.533145E-6	-45.895602
1.53319E-6	-45.905741
1.533235E-6	-45.922693
1.53328E-6	-45.922693
1.533325E-6	-45.926091
1.53337E-6	-45.972229
1.533415E-6	-45.991168
1.53346E-6	-46.018863
1.533505E-6	-46.031036
1.53355E-6	-46.046736
1.533595E-6	-46.057235
1.53364E-6	-46.083593
1.533685E-6	-46.111886
1.53373E-6	-46.133227
1.533775E-6	-46.156466
1.53382E-6	-46.187044
1.533865E-6	-46.225116
1.53391E-6	-46.241536
1.533955E-6	-46.256183
1.534E-6	-46.267201
1.534045E-6	-46.283781
1.53409E-6	-46.317131
1.534135E-6	-46.346993
1.53418E-6	-46.34512
1.534225E-6	-46.377061
1.53427E-6	-46.377061
1.534315E-6	-46.40544
1.53436E-6	-46.449318
1.534405E-6	-46.458916
1.53445E-6	-46.464684
1.534495E-6	-46.49752
1.53454E-6	-46.5267
1.534585E-6	-46.546263
1.53463E-6	-46.556077
1.534675E-6	-46.605486
1.53472E-6	-46.627405
1.534765E-6	-46.643415
1.53481E-6	-46.635403
1.534855E-6	-46.687752
1.5349E-6	-46.691805
1.534945E-6	-46.712128
1.53499E-6	-46.706021
1.535035E-6	-46.726411
1.53508E-6	-46.759234
1.535125E-6	-46.808939
1.53517E-6	-46.798537
1.535215E-6	-46.819367
1.53526E-6	-46.836102
1.535305E-6	-46.861328
1.53535E-6	-46.88458
1.535395E-6	-46.91009
1.53544E-6	-46.957249
1.535485E-6	-46.940041
1.53553E-6	-46.946486
1.535575E-6	-46.968039
1.53562E-6	-46.9897
1.535665E-6	-47.009287
1.53571E-6	-47.007107
1.535755E-6	-47.011469
1.5358E-6	-47.042131
1.535845E-6	-47.042131
1.53589E-6	-47.064165
1.535935E-6	-47.081873
1.53598E-6	-47.095202
1.536025E-6	-47.10411
1.53607E-6	-47.117508
1.536115E-6	-47.173779
1.53616E-6	-47.16925
1.536205E-6	-47.164726
1.53625E-6	-47.162466
1.536295E-6	-47.162466
1.53634E-6	-47.166988
1.536385E-6	-47.2262
1.53643E-6	-47.221617
1.536475E-6	-47.20105
1.53652E-6	-47.221617
1.536565E-6	-47.221617
1.53661E-6	-47.233085
1.536655E-6	-47.223908
1.5367E-6	-47.258422
1.536745E-6	-47.265357
1.53679E-6	-47.256112
1.536835E-6	-47.265357
1.53688E-6	-47.279262
1.536925E-6	-47.304871
1.53697E-6	-47.297871
1.537015E-6	-47.335331
1.53706E-6	-47.311881
1.537105E-6	-47.31422
1.53715E-6	-47.325936
1.537195E-6	-47.335331
1.53724E-6	-47.340036
1.537285E-6	-47.311881
1.53733E-6	-47.32359
1.537375E-6	-47.330631
1.53742E-6	-47.347104
1.537465E-6	-47.337683
1.53751E-6	-47.318903
1.537555E-6	-47.311881
1.5376E-6	-47.349462
1.537645E-6	-47.358908
1.53769E-6	-47.382615
1.537735E-6	-47.368375
1.53778E-6	-47.347104
1.537825E-6	-47.335331
1.53787E-6	-47.358908
1.537915E-6	-47.377863
1.53796E-6	-47.361273
1.538005E-6	-47.351822
1.53805E-6	-47.347104
1.538095E-6	-47.33298
1.53814E-6	-47.342391
1.538185E-6	-47.351822
1.53823E-6	-47.340036
1.538275E-6	-47.33298
1.53832E-6	-47.363639
1.538365E-6	-47.340036
1.53841E-6	-47.337683
1.538455E-6	-47.356545
1.5385E-6	-47.347104
1.538545E-6	-47.344747
1.53859E-6	-47.328283
1.538635E-6	-47.361273
1.53868E-6	-47.363639
1.538725E-6	-47.358908
1.53877E-6	-47.33298
1.538815E-6	-47.316561
1.53886E-6	-47.309543
1.538905E-6	-47.340036
1.53895E-6	-47.307206
1.538995E-6	-47.297871
1.53904E-6	-47.297871
1.539085E-6	-47.295541
1.53913E-6	-47.309543
1.539175E-6	-47.325936
1.53922E-6	-47.358908
1.539265E-6	-47.318903
1.53931E-6	-47.316561
1.539355E-6	-47.31422
1.5394E-6	-47.293212
1.539445E-6	-47.318903
1.53949E-6	-47.316561
1.539535E-6	-47.328283
1.53958E-6	-47.297871
1.539625E-6	-47.267672
1.53967E-6	-47.267672
1.539715E-6	-47.293212
1.53976E-6	-47.281584
1.539805E-6	-47.274622
1.53985E-6	-47.274622
1.539895E-6	-47.260732
1.53994E-6	-47.274622
1.539985E-6	-47.274622
1.54003E-6	-47.272304
1.540075E-6	-47.258422
1.54012E-6	-47.276942
1.540165E-6	-47.251497
1.54021E-6	-47.302536
1.540255E-6	-47.290884
1.5403E-6	-47.286231
1.540345E-6	-47.242281
1.54039E-6	-47.249191
1.540435E-6	-47.223908
1.54048E-6	-47.244583
1.540525E-6	-47.246886
1.54057E-6	-47.230789
1.540615E-6	-47.212464
1.54066E-6	-47.173779
1.540705E-6	-47.189666
1.54075E-6	-47.210179
1.540795E-6	-47.219327
1.54084E-6	-47.228494
1.540885E-6	-47.219327
1.54093E-6	-47.210179
1.540975E-6	-47.185121
1.54102E-6	-47.228494
1.541065E-6	-47.210179
1.54111E-6	-47.189666
1.541155E-6	-47.187393
1.5412E-6	-47.212464
1.541245E-6	-47.157949
1.54129E-6	-47.196493
1.541335E-6	-47.151183
1.54138E-6	-47.124222
1.541425E-6	-47.171514
1.54147E-6	-47.14893
1.541515E-6	-47.137681
1.54156E-6	-47.14893
1.541605E-6	-47.14893
1.54165E-6	-47.164726
1.541695E-6	-47.155693
1.54174E-6	-47.153437
1.541785E-6	-47.135435
1.54183E-6	-47.160207
1.541875E-6	-47.146678
1.54192E-6	-47.128704
1.541965E-6	-47.115272
1.54201E-6	-47.108572
1.542055E-6	-47.119745
1.5421E-6	-47.081873
1.542145E-6	-47.113037
1.54219E-6	-47.068585
1.542235E-6	-47.099654
1.54228E-6	-47.084092
1.542325E-6	-47.090754
1.54237E-6	-47.075224
1.542415E-6	-47.081873
1.54246E-6	-47.108572
1.542505E-6	-47.108572
1.54255E-6	-47.090754
1.542595E-6	-47.108572
1.54264E-6	-47.079656
1.542685E-6	-47.088532
1.54273E-6	-47.090754
1.542775E-6	-47.081873
1.54282E-6	-47.079656
1.542865E-6	-47.077439
1.54291E-6	-47.064165
1.542955E-6	-47.046529
1.543E-6	-47.050931
1.543045E-6	-47.050931
1.54309E-6	-47.048729
1.543135E-6	-47.057543
1.54318E-6	-47.07301
1.543225E-6	-47.07301
1.54327E-6	-47.088532
1.543315E-6	-47.070797
1.54336E-6	-47.088532
1.543405E-6	-47.086311
1.54345E-6	-47.088532
1.543495E-6	-47.066374
1.54354E-6	-47.059749
1.543585E-6	-47.064165
1.54363E-6	-47.055338
1.543675E-6	-47.055338
1.54372E-6	-47.026773
1.543765E-6	-47.050931
1.54381E-6	-47.055338
1.543855E-6	-47.055338
1.5439E-6	-47.033348
1.543945E-6	-47.037737
1.54399E-6	-47.061956
1.544035E-6	-47.086311
1.54408E-6	-47.086311
1.544125E-6	-47.070797
1.54417E-6	-47.070797
1.544215E-6	-47.059749
1.54426E-6	-47.108572
1.544305E-6	-47.10411
1.54435E-6	-47.084092
1.544395E-6	-47.046529
1.54444E-6	-47.039933
1.544485E-6	-47.044329
1.54453E-6	-47.050931
1.544575E-6	-47.077439
1.54462E-6	-47.081873
1.544665E-6	-47.061956
1.54471E-6	-47.050931
1.544755E-6	-47.070797
1.5448E-6	-47.108572
1.544845E-6	-47.10634
1.54489E-6	-47.099654
1.544935E-6	-47.099654
1.54498E-6	-47.081873
1.545025E-6	-47.075224
1.54507E-6	-47.055338
1.545115E-6	-46.237881
1.54516E-6	-40.280287
1.545205E-6	-35.752817
1.54525E-6	-33.529106
1.545295E-6	-33.029451
1.54534E-6	-32.959353
1.545385E-6	-32.960212
1.54543E-6	-32.926002
1.545475E-6	-33.253225
1.54552E-6	-35.061239
1.545565E-6	-39.336741
1.54561E-6	-44.90663
1.545655E-6	-46.92504
1.5457E-6	-47.066374
1.545745E-6	-47.110804
1.54579E-6	-47.117508
1.545835E-6	-47.142177
1.54588E-6	-47.130946
1.545925E-6	-47.13319
1.54597E-6	-47.113037
1.546015E-6	-47.099654
1.54606E-6	-47.097427
1.546105E-6	-47.117508
1.54615E-6	-47.135435
1.546195E-6	-47.115272
1.54624E-6	-47.130946
1.546285E-6	-47.110804
1.54633E-6	-47.142177
1.546375E-6	-47.16925
1.54642E-6	-47.157949
1.546465E-6	-47.185121
1.54651E-6	-47.166988
1.546555E-6	-47.157949
1.5466E-6	-47.189666
1.546645E-6	-47.196493
1.54669E-6	-47.196493
1.546735E-6	-47.189666
1.54678E-6	-47.166988
1.546825E-6	-47.160207
1.54687E-6	-47.160207
1.546915E-6	-47.162466
1.54696E-6	-47.151183
1.547005E-6	-47.144427
1.54705E-6	-47.139929
1.547095E-6	-47.176045
1.54714E-6	-47.185121
1.547185E-6	-47.21475
1.54723E-6	-47.203331
1.547275E-6	-47.191941
1.54732E-6	-47.18285
1.547365E-6	-47.205612
1.54741E-6	-47.217038
1.547455E-6	-47.207895
1.5475E-6	-47.219327
1.547545E-6	-47.191941
1.54759E-6	-47.191941
1.547635E-6	-47.171514
1.54768E-6	-47.18285
1.547725E-6	-47.178312
1.54777E-6	-47.178312
1.547815E-6	-47.189666
1.54786E-6	-47.18285
1.547905E-6	-47.194216
1.54795E-6	-47.2262
1.547995E-6	-47.217038
1.54804E-6	-47.2262
1.548085E-6	-47.221617
1.54813E-6	-47.233085
1.548175E-6	-47.265357
1.54822E-6	-47.260732
1.548265E-6	-47.235382
1.54831E-6	-47.2262
1.548355E-6	-47.21475
1.5484E-6	-47.230789
1.548445E-6	-47.230789
1.54849E-6	-47.223908
1.548535E-6	-47.198771
1.54858E-6	-47.20105
1.548625E-6	-47.203331
1.54867E-6	-47.233085
1.548715E-6	-47.233085
1.54876E-6	-47.221617
1.548805E-6	-47.23998
1.54885E-6	-47.246886
1.548895E-6	-47.244583
1.54894E-6	-47.272304
1.548985E-6	-47.258422
1.54903E-6	-47.263044
1.549075E-6	-47.242281
1.54912E-6	-47.253804
1.549165E-6	-47.263044
1.54921E-6	-47.221617
1.549255E-6	-47.230789
1.5493E-6	-47.205612
1.549345E-6	-47.212464
1.54939E-6	-47.217038
1.549435E-6	-47.212464
1.54948E-6	-47.212464
1.549525E-6	-47.223908
1.54957E-6	-47.223908
1.549615E-6	-47.235382
1.54966E-6	-47.256112
1.549705E-6	-47.251497
1.54975E-6	-47.274622
1.549795E-6	-47.253804
1.54984E-6	-47.221617
1.549885E-6	-47.113037
1.54993E-6	-44.330913
1.549975E-6	-37.425614
1.55002E-6	-33.935111
1.550065E-6	-32.716462
1.55011E-6	-32.4443
1.550155E-6	-32.410881
1.5502E-6	-32.413909
1.550245E-6	-32.467234
1.55029E-6	-33.193926
1.550335E-6	-35.893915
1.55038E-6	-41.079611
1.550425E-6	-46.307841
1.55047E-6	-47.10634
1.550515E-6	-47.207895
1.55056E-6	-47.23768
1.550605E-6	-47.23998
1.55065E-6	-47.221617
1.550695E-6	-47.230789
1.55074E-6	-47.223908
1.550785E-6	-47.212464
1.55083E-6	-47.194216
1.550875E-6	-47.189666
1.55092E-6	-47.173779
1.550965E-6	-47.191941
1.55101E-6	-47.194216
1.551055E-6	-47.180581
1.5511E-6	-47.196493
1.551145E-6	-47.20105
1.55119E-6	-47.20105
1.551235E-6	-47.242281
1.55128E-6	-47.233085
1.551325E-6	-47.228494
1.55137E-6	-47.20105
1.551415E-6	-47.196493
1.55146E-6	-47.221617
1.551505E-6	-47.217038
1.55155E-6	-47.198771
1.551595E-6	-47.191941
1.55164E-6	-47.166988
1.551685E-6	-47.157949
1.55173E-6	-47.166988
1.551775E-6	-47.166988
1.55182E-6	-47.173779
1.551865E-6	-47.160207
1.55191E-6	-47.144427
1.551955E-6	-47.162466
1.552E-6	-47.191941
1.552045E-6	-47.203331
1.55209E-6	-47.203331
1.552135E-6	-47.21475
1.55218E-6	-47.18285
1.552225E-6	-47.173779
1.55227E-6	-47.185121
1.552315E-6	-47.196493
1.55236E-6	-47.171514
1.552405E-6	-47.128704
1.55245E-6	-47.113037
1.552495E-6	-47.119745
1.55254E-6	-47.151183
1.552585E-6	-47.14893
1.55263E-6	-47.142177
1.552675E-6	-47.128704
1.55272E-6	-47.139929
1.552765E-6	-47.157949
1.55281E-6	-47.166988
1.552855E-6	-47.196493
1.5529E-6	-47.166988
1.552945E-6	-47.139929
1.55299E-6	-47.155693
1.553035E-6	-47.164726
1.55308E-6	-47.178312
1.553125E-6	-47.157949
1.55317E-6	-47.14893
1.553215E-6	-47.110804
1.55326E-6	-47.130946
1.553305E-6	-47.128704
1.55335E-6	-47.139929
1.553395E-6	-47.110804
1.55344E-6	-47.090754
1.553485E-6	-47.115272
1.55353E-6	-47.117508
1.553575E-6	-47.135435
1.55362E-6	-47.162466
1.553665E-6	-47.14893
1.55371E-6	-47.151183
1.553755E-6	-47.137681
1.5538E-6	-47.14893
1.553845E-6	-47.185121
1.55389E-6	-47.153437
1.553935E-6	-47.139929
1.55398E-6	-47.135435
1.554025E-6	-47.10411
1.55407E-6	-47.10411
1.554115E-6	-47.108572
1.55416E-6	-47.099654
1.554205E-6	-47.088532
1.55425E-6	-47.075224
1.554295E-6	-47.068585
1.55434E-6	-47.10411
1.554385E-6	-47.108572
1.55443E-6	-47.128704
1.554475E-6	-47.130946
1.55452E-6	-47.121983
1.554565E-6	-47.146678
1.55461E-6	-47.146678
1.554655E-6	-47.135435
1.5547E-6	-47.124222
1.554745E-6	-47.117508
1.55479E-6	-47.108572
1.554835E-6	-47.10411
1.55488E-6	-47.088532
1.554925E-6	-47.081873
1.55497E-6	-47.059749
1.555015E-6	-47.07301
1.55506E-6	-47.068585
1.555105E-6	-47.070797
1.55515E-6	-47.090754
1.555195E-6	-47.099654
1.55524E-6	-47.126462
1.555285E-6	-47.10411
1.55533E-6	-47.130946
1.555375E-6	-47.10411
1.55542E-6	-47.117508
1.555465E-6	-47.117508
1.55551E-6	-47.115272
1.555555E-6	-47.079656
1.5556E-6	-47.099654
1.555645E-6	-47.086311
1.55569E-6	-47.066374
1.555735E-6	-47.068585
1.55578E-6	-47.048729
1.555825E-6	-47.050931
1.55587E-6	-47.066374
1.555915E-6	-47.077439
1.55596E-6	-47.079656
1.556005E-6	-47.07301
1.55605E-6	-47.097427
1.556095E-6	-47.115272
1.55614E-6	-47.10411
1.556185E-6	-47.124222
1.55623E-6	-47.10411
1.556275E-6	-47.108572
1.55632E-6	-47.10411
1.556365E-6	-47.110804
1.55641E-6	-47.095202
1.556455E-6	-47.10411
1.5565E-6	-47.064165
1.556545E-6	-47.048729
1.55659E-6	-47.044329
1.556635E-6	-47.050931
1.55668E-6	-47.086311
1.556725E-6	-47.068585
1.55677E-6	-47.070797
1.556815E-6	-47.088532
1.55686E-6	-47.097427
1.556905E-6	-47.101882
1.55695E-6	-47.130946
1.556995E-6	-47.128704
1.55704E-6	-47.108572
1.557085E-6	-47.108572
1.55713E-6	-47.110804
1.557175E-6	-47.10411
1.55722E-6	-47.10411
1.557265E-6	-47.084092
1.55731E-6	-47.066374
1.557355E-6	-47.050931
1.5574E-6	-47.055338
1.557445E-6	-47.075224
1.55749E-6	-47.086311
1.557535E-6	-47.075224
1.55758E-6	-47.084092
1.557625E-6	-47.115272
1.55767E-6	-47.13319
1.557715E-6	-47.139929
1.55776E-6	-47.162466
1.557805E-6	-47.162466
1.55785E-6	-47.137681
1.557895E-6	-47.137681
1.55794E-6	-47.157949
1.557985E-6	-47.13319
1.55803E-6	-47.115272
1.558075E-6	-47.108572
1.55812E-6	-47.113037
1.558165E-6	-47.108572
1.55821E-6	-47.113037
1.558255E-6	-47.115272
1.5583E-6	-47.117508
1.558345E-6	-47.115272
1.55839E-6	-47.142177
1.558435E-6	-47.139929
1.55848E-6	-47.185121
1.558525E-6	-47.189666
1.55857E-6	-47.203331
1.558615E-6	-47.203331
1.55866E-6	-47.185121
1.558705E-6	-47.191941
1.55875E-6	-47.217038
1.558795E-6	-47.207895
1.55884E-6	-47.18285
1.558885E-6	-47.153437
1.55893E-6	-47.171514
1.558975E-6	-47.164726
1.55902E-6	-47.185121
1.559065E-6	-47.191941
1.55911E-6	-47.203331
1.559155E-6	-47.173779
1.5592E-6	-47.203331
1.559245E-6	-47.230789
1.55929E-6	-47.251497
1.559335E-6	-47.288557
1.55938E-6	-47.272304
1.559425E-6	-47.276942
1.55947E-6	-47.256112
1.559515E-6	-47.279262
1.55956E-6	-47.297871
1.559605E-6	-47.295541
1.55965E-6	-47.265357
1.559695E-6	-47.256112
1.55974E-6	-47.244583
1.559785E-6	-47.279262
1.55983E-6	-47.269987
1.559875E-6	-47.286231
1.55992E-6	-47.272304
1.559965E-6	-47.290884
1.56001E-6	-47.295541
1.560055E-6	-47.347104
1.5601E-6	-47.384992
1.560145E-6	-47.363639
1.56019E-6	-47.370745
1.560235E-6	-47.363639
1.56028E-6	-47.377863
1.560325E-6	-47.389752
1.56037E-6	-47.396901
1.560415E-6	-47.389752
1.56046E-6	-47.377863
1.560505E-6	-47.356545
1.56055E-6	-47.368375
1.560595E-6	-47.382615
1.56064E-6	-47.368375
1.560685E-6	-47.373117
1.56073E-6	-47.377863
1.560775E-6	-47.394516
1.56082E-6	-47.413627
1.560865E-6	-47.452103
1.56091E-6	-47.456937
1.560955E-6	-47.459355
1.561E-6	-47.473897
1.561045E-6	-47.473897
1.56109E-6	-47.490923
1.561135E-6	-47.500682
1.56118E-6	-47.486051
1.561225E-6	-47.483618
1.56127E-6	-47.469044
1.561315E-6	-47.46662
1.56136E-6	-47.486051
1.561405E-6	-47.486051
1.56145E-6	-47.483618
1.561495E-6	-47.478754
1.56154E-6	-47.486051
1.561585E-6	-47.503126
1.56163E-6	-47.535014
1.561675E-6	-47.549811
1.56172E-6	-47.557229
1.561765E-6	-47.544873
1.56181E-6	-47.567139
1.561855E-6	-47.582046
1.5619E-6	-47.589518
1.561945E-6	-47.609509
1.56199E-6	-47.607005
1.562035E-6	-47.597004
1.56208E-6	-47.587026
1.562125E-6	-47.587026
1.56217E-6	-47.577071
1.562215E-6	-47.577071
1.56226E-6	-47.577071
1.562305E-6	-47.582046
1.56235E-6	-47.589518
1.562395E-6	-47.612014
1.56244E-6	-47.624563
1.562485E-6	-47.637147
1.56253E-6	-47.652297
1.562575E-6	-47.672579
1.56262E-6	-47.6675
1.562665E-6	-47.685304
1.56271E-6	-47.695511
1.562755E-6	-47.695511
1.5628E-6	-47.698066
1.562845E-6	-47.685304
1.56289E-6	-47.68021
1.562935E-6	-47.692957
1.56298E-6	-47.68021
1.563025E-6	-47.672579
1.56307E-6	-47.685304
1.563115E-6	-47.672579
1.56316E-6	-47.672579
1.563205E-6	-47.708303
1.56325E-6	-47.71343
1.563295E-6	-47.739159
1.56334E-6	-47.746907
1.563385E-6	-47.762445
1.56343E-6	-47.780644
1.563475E-6	-47.796304
