Wavelength (nm)	Power (dBm)
1.525E-6	-50.381994
1.525045E-6	-50.242007
1.52509E-6	-50.131387
1.525135E-6	-50.07579
1.52518E-6	-50.015663
1.525225E-6	-49.901244
1.52527E-6	-49.788107
1.525315E-6	-49.653715
1.52536E-6	-49.538952
1.525405E-6	-49.427144
1.52545E-6	-49.295927
1.525495E-6	-49.115095
1.52554E-6	-48.884015
1.525585E-6	-48.687022
1.52563E-6	-48.554258
1.525675E-6	-48.416375
1.52572E-6	-48.297383
1.525765E-6	-48.167302
1.52581E-6	-48.052082
1.525855E-6	-47.996968
1.5259E-6	-48.010681
1.525945E-6	-48.068754
1.52599E-6	-48.029953
1.526035E-6	-47.966951
1.52608E-6	-47.872798
1.526125E-6	-47.79369
1.52617E-6	-47.690404
1.526215E-6	-47.594508
1.52626E-6	-47.408842
1.526305E-6	-47.13319
1.52635E-6	-46.920763
1.526395E-6	-46.765416
1.52644E-6	-46.657474
1.526485E-6	-46.544302
1.52653E-6	-46.456994
1.526575E-6	-46.373291
1.52662E-6	-46.313413
1.526665E-6	-46.380834
1.52671E-6	-46.49752
1.526755E-6	-46.554113
1.5268E-6	-46.522798
1.526845E-6	-46.456994
1.52689E-6	-46.390281
1.526935E-6	-46.322715
1.52698E-6	-46.232406
1.527025E-6	-46.08712
1.52707E-6	-45.765903
1.527115E-6	-45.517576
1.52716E-6	-45.326879
1.527205E-6	-45.224447
1.52725E-6	-45.189876
1.527295E-6	-45.09199
1.52734E-6	-45.084982
1.527385E-6	-45.016894
1.52743E-6	-45.120137
1.527475E-6	-45.353614
1.52752E-6	-45.508303
1.527565E-6	-45.523769
1.52761E-6	-45.49443
1.527655E-6	-45.479068
1.5277E-6	-45.43634
1.527745E-6	-45.391022
1.52779E-6	-45.278289
1.527835E-6	-44.975729
1.52788E-6	-44.672456
1.527925E-6	-44.480623
1.52797E-6	-44.360445
1.528015E-6	-44.32268
1.52806E-6	-44.255057
1.528105E-6	-44.250432
1.52815E-6	-44.270123
1.528195E-6	-44.362817
1.52824E-6	-44.666093
1.528285E-6	-44.963455
1.52833E-6	-45.096201
1.528375E-6	-45.069604
1.52842E-6	-45.093393
1.528465E-6	-45.101821
1.52851E-6	-45.097605
1.528555E-6	-45.004504
1.5286E-6	-44.806972
1.528645E-6	-44.391373
1.52869E-6	-44.089354
1.528735E-6	-44.063817
1.52878E-6	-44.002261
1.528825E-6	-44.001169
1.52887E-6	-44.015378
1.528915E-6	-43.973975
1.52896E-6	-44.078232
1.529005E-6	-44.394956
1.52905E-6	-44.855851
1.529095E-6	-45.03901
1.52914E-6	-45.032087
1.529185E-6	-45.059846
1.52923E-6	-45.087784
1.529275E-6	-45.117314
1.52932E-6	-45.114493
1.529365E-6	-44.960732
1.52941E-6	-44.538276
1.529455E-6	-44.207882
1.5295E-6	-44.049449
1.529545E-6	-44.017568
1.52959E-6	-44.009908
1.529635E-6	-44.050553
1.52968E-6	-44.048346
1.529725E-6	-44.08379
1.52977E-6	-44.332091
1.529815E-6	-44.806972
1.52986E-6	-45.185574
1.529905E-6	-45.25638
1.52995E-6	-45.304725
1.529995E-6	-45.275361
1.53004E-6	-45.310622
1.530085E-6	-45.353614
1.53013E-6	-45.195619
1.530175E-6	-44.886515
1.53022E-6	-44.434563
1.530265E-6	-44.162346
1.53031E-6	-44.121768
1.530355E-6	-44.177093
1.5304E-6	-44.154426
1.530445E-6	-44.133002
1.53049E-6	-44.15895
1.530535E-6	-44.399738
1.53058E-6	-44.843911
1.530625E-6	-45.278289
1.53067E-6	-45.448505
1.530715E-6	-45.471407
1.53076E-6	-45.477534
1.530805E-6	-45.477534
1.53085E-6	-45.519123
1.530895E-6	-45.448505
1.53094E-6	-45.121549
1.530985E-6	-44.681381
1.53103E-6	-44.336804
1.531075E-6	-44.277094
1.53112E-6	-44.251588
1.531165E-6	-44.295738
1.53121E-6	-44.263163
1.531255E-6	-44.268962
1.5313E-6	-44.381833
1.531345E-6	-44.758636
1.53139E-6	-45.252012
1.531435E-6	-45.539291
1.53148E-6	-45.605094
1.531525E-6	-45.605094
1.53157E-6	-45.605094
1.531615E-6	-45.632015
1.53166E-6	-45.616159
1.531705E-6	-45.431787
1.53175E-6	-44.970269
1.531795E-6	-44.518564
1.53184E-6	-44.335625
1.531885E-6	-44.345064
1.53193E-6	-44.341522
1.531975E-6	-44.339162
1.53202E-6	-44.380642
1.532065E-6	-44.386601
1.53211E-6	-44.66355
1.532155E-6	-45.141367
1.5322E-6	-45.50059
1.532245E-6	-45.652715
1.53229E-6	-45.670307
1.532335E-6	-45.679933
1.53238E-6	-45.673513
1.532425E-6	-45.687971
1.53247E-6	-45.57677
1.532515E-6	-45.207127
1.53256E-6	-44.769042
1.532605E-6	-44.474535
1.53265E-6	-44.427335
1.532695E-6	-44.392567
1.53274E-6	-44.427335
1.532785E-6	-44.416515
1.53283E-6	-44.475752
1.532875E-6	-44.618034
1.53292E-6	-45.014138
1.532965E-6	-45.43027
1.53301E-6	-45.655908
1.533055E-6	-45.676722
1.5331E-6	-45.736514
1.533145E-6	-45.721894
1.53319E-6	-45.73001
1.533235E-6	-45.702477
1.53328E-6	-45.43634
1.533325E-6	-45.0515
1.53337E-6	-44.687766
1.533415E-6	-44.595454
1.53346E-6	-44.548166
1.533505E-6	-44.574235
1.53355E-6	-44.58296
1.533595E-6	-44.607984
1.53364E-6	-44.66355
1.533685E-6	-44.949858
1.53373E-6	-45.374523
1.533775E-6	-45.654311
1.53382E-6	-45.733261
1.533865E-6	-45.734887
1.53391E-6	-45.73001
1.533955E-6	-45.764265
1.534E-6	-45.743028
1.534045E-6	-45.654311
1.53409E-6	-45.319482
1.534135E-6	-44.979828
1.53418E-6	-44.775558
1.534225E-6	-44.7379
1.53427E-6	-44.726279
1.534315E-6	-44.758636
1.53436E-6	-44.76774
1.534405E-6	-44.796475
1.53445E-6	-44.982563
1.534495E-6	-45.257837
1.53454E-6	-45.586191
1.534585E-6	-45.725139
1.53463E-6	-45.762628
1.534675E-6	-45.772461
1.53472E-6	-45.757719
1.534765E-6	-45.764265
1.53481E-6	-45.717032
1.534855E-6	-45.568935
1.5349E-6	-45.201369
1.534945E-6	-44.955291
1.53499E-6	-44.871822
1.535035E-6	-44.90663
1.53508E-6	-44.867824
1.535125E-6	-44.910665
1.53517E-6	-44.940365
1.535215E-6	-44.944431
1.53526E-6	-45.15131
1.535305E-6	-45.525319
1.53535E-6	-45.696024
1.535395E-6	-45.749551
1.53544E-6	-45.76918
1.535485E-6	-45.752817
1.53553E-6	-45.731635
1.535575E-6	-45.73977
1.53562E-6	-45.673513
1.535665E-6	-45.40306
1.53571E-6	-45.125788
1.535755E-6	-44.985299
1.5358E-6	-44.93901
1.535845E-6	-44.966179
1.53589E-6	-44.953932
1.535935E-6	-45.000381
1.53598E-6	-45.000381
1.536025E-6	-45.13853
1.53607E-6	-45.340226
1.536115E-6	-45.638374
1.53616E-6	-45.749551
1.536205E-6	-45.696024
1.53625E-6	-45.710557
1.536295E-6	-45.713793
1.53634E-6	-45.702477
1.536385E-6	-45.68154
1.53643E-6	-45.506759
1.536475E-6	-45.240384
1.53652E-6	-45.055671
1.536565E-6	-45.001755
1.53661E-6	-44.959371
1.536655E-6	-44.960732
1.5367E-6	-44.963455
1.536745E-6	-44.963455
1.53679E-6	-45.015516
1.536835E-6	-45.207127
1.53688E-6	-45.462231
1.536925E-6	-45.628839
1.53697E-6	-45.641556
1.537015E-6	-45.639965
1.53706E-6	-45.633604
1.537105E-6	-45.651119
1.53715E-6	-45.619325
1.537195E-6	-45.561115
1.53724E-6	-45.32836
1.537285E-6	-45.082182
1.53733E-6	-44.918745
1.537375E-6	-44.952574
1.53742E-6	-44.956651
1.537465E-6	-44.92684
1.53751E-6	-44.913356
1.537555E-6	-44.963455
1.5376E-6	-45.043169
1.537645E-6	-45.285616
1.53769E-6	-45.483671
1.537735E-6	-45.559552
1.53778E-6	-45.559552
1.537825E-6	-45.561115
1.53787E-6	-45.542402
1.537915E-6	-45.561115
1.53796E-6	-45.502132
1.538005E-6	-45.398542
1.53805E-6	-45.168408
1.538095E-6	-44.958011
1.53814E-6	-44.91201
1.538185E-6	-44.921441
1.53823E-6	-44.93495
1.538275E-6	-44.885177
1.53832E-6	-44.887853
1.538365E-6	-44.917397
1.53841E-6	-45.082182
1.538455E-6	-45.341712
1.5385E-6	-45.480601
1.538545E-6	-45.509847
1.53859E-6	-45.531523
1.538635E-6	-45.514483
1.53868E-6	-45.561115
1.538725E-6	-45.550189
1.53877E-6	-45.448505
1.538815E-6	-45.238933
1.53886E-6	-45.029321
1.538905E-6	-44.889192
1.53895E-6	-44.895891
1.538995E-6	-44.88384
1.53904E-6	-44.87983
1.539085E-6	-44.873156
1.53913E-6	-44.886515
1.539175E-6	-44.968906
1.53922E-6	-45.214335
1.539265E-6	-45.428754
1.53931E-6	-45.502132
1.539355E-6	-45.540846
1.5394E-6	-45.545515
1.539445E-6	-45.55799
1.53949E-6	-45.526869
1.539535E-6	-45.539291
1.53958E-6	-45.373026
1.539625E-6	-45.134278
1.53967E-6	-44.979828
1.539715E-6	-44.897232
1.53976E-6	-44.91201
1.539805E-6	-44.878495
1.53985E-6	-44.877159
1.539895E-6	-44.862498
1.53994E-6	-44.92684
1.539985E-6	-45.09901
1.54003E-6	-45.368539
1.540075E-6	-45.508303
1.54012E-6	-45.56737
1.540165E-6	-45.564241
1.54021E-6	-45.578339
1.540255E-6	-45.581478
1.5403E-6	-45.601938
1.540345E-6	-45.512937
1.54039E-6	-45.326879
1.540435E-6	-45.087784
1.54048E-6	-44.959371
1.540525E-6	-44.91201
1.54057E-6	-44.936303
1.540615E-6	-44.92819
1.54066E-6	-44.89455
1.540705E-6	-44.903943
1.54075E-6	-45.003129
1.540795E-6	-45.21145
1.54084E-6	-45.471407
1.540885E-6	-45.619325
1.54093E-6	-45.647929
1.540975E-6	-45.636783
1.54102E-6	-45.675117
1.541065E-6	-45.638374
1.54111E-6	-45.605094
1.541155E-6	-45.511392
1.5412E-6	-45.268051
1.541245E-6	-45.034855
1.54129E-6	-44.956651
1.541335E-6	-44.936303
1.54138E-6	-44.936303
1.541425E-6	-44.89455
1.54147E-6	-44.90663
1.541515E-6	-44.949858
1.54156E-6	-45.090588
1.541605E-6	-45.349147
1.54165E-6	-45.583049
1.541695E-6	-45.657505
1.54174E-6	-45.689581
1.541785E-6	-45.700863
1.54183E-6	-45.586191
1.541875E-6	-45.259295
1.54192E-6	-42.817475
1.541965E-6	-31.055178
1.54201E-6	-23.35358
1.542055E-6	-20.172766
1.5421E-6	-19.157813
1.542145E-6	-18.955129
1.54219E-6	-18.887375
1.542235E-6	-18.87395
1.54228E-6	-19.013563
1.542325E-6	-20.202696
1.54237E-6	-23.77786
1.542415E-6	-31.455118
1.54246E-6	-40.657036
1.542505E-6	-44.580465
1.54255E-6	-45.472938
1.542595E-6	-45.652715
1.54264E-6	-45.689581
1.542685E-6	-45.699249
1.54273E-6	-45.651119
1.542775E-6	-45.434821
1.54282E-6	-45.149888
1.542865E-6	-44.992148
1.54291E-6	-44.955291
1.542955E-6	-44.9485
1.543E-6	-44.975729
1.543045E-6	-44.964817
1.54309E-6	-44.974363
1.543135E-6	-45.062632
1.54318E-6	-45.309147
1.543225E-6	-45.601938
1.54327E-6	-45.733261
1.543315E-6	-45.764265
1.54336E-6	-45.767541
1.543405E-6	-45.734887
1.54345E-6	-45.564241
1.543495E-6	-44.645793
1.54354E-6	-35.155578
1.543585E-6	-25.202808
1.54363E-6	-21.02263
1.543675E-6	-19.500071
1.54372E-6	-19.208188
1.543765E-6	-19.143527
1.54381E-6	-19.118639
1.543855E-6	-19.186527
1.5439E-6	-19.943906
1.543945E-6	-22.697832
1.54399E-6	-29.389247
1.544035E-6	-39.215432
1.54408E-6	-44.149907
1.544125E-6	-45.480601
1.54417E-6	-45.73977
1.544215E-6	-45.787252
1.54426E-6	-45.805399
1.544305E-6	-45.798792
1.54435E-6	-45.612995
1.544395E-6	-45.295895
1.54444E-6	-45.065419
1.544485E-6	-45.010006
1.54453E-6	-45.015516
1.544575E-6	-45.027938
1.54462E-6	-45.033471
1.544665E-6	-45.021033
1.54471E-6	-45.069604
1.544755E-6	-45.292956
1.5448E-6	-45.622494
1.544845E-6	-45.833595
1.54489E-6	-45.873715
1.544935E-6	-45.883803
1.54498E-6	-45.853609
1.545025E-6	-45.774102
1.54507E-6	-45.260753
1.545115E-6	-39.867413
1.54516E-6	-27.652297
1.545205E-6	-22.136035
1.54525E-6	-19.863203
1.545295E-6	-19.329291
1.54534E-6	-19.251836
1.545385E-6	-19.240882
1.54543E-6	-19.219058
1.545475E-6	-19.590023
1.54552E-6	-21.450263
1.545565E-6	-26.307841
1.54561E-6	-35.285616
1.545655E-6	-42.85838
1.5457E-6	-45.254924
1.545745E-6	-45.767541
1.54579E-6	-45.888856
1.545835E-6	-45.915904
1.54588E-6	-45.924392
1.545925E-6	-45.81533
1.54597E-6	-45.520671
1.546015E-6	-45.230235
1.54606E-6	-45.114493
1.546105E-6	-45.108856
1.54615E-6	-45.104634
1.546195E-6	-45.094797
1.54624E-6	-45.090588
1.546285E-6	-45.117314
1.54633E-6	-45.275361
1.546375E-6	-45.587763
1.54642E-6	-45.855281
1.546465E-6	-45.948245
1.54651E-6	-45.965363
1.546555E-6	-45.961934
1.5466E-6	-45.943122
1.546645E-6	-45.70894
1.54669E-6	-44.041732
1.546735E-6	-32.451931
1.54678E-6	-24.069356
1.546825E-6	-20.668165
1.54687E-6	-19.523358
1.546915E-6	-19.318141
1.54696E-6	-19.310724
1.547005E-6	-19.299621
1.54705E-6	-19.408154
1.547095E-6	-20.46192
1.54714E-6	-23.81429
1.547185E-6	-30.896958
1.54723E-6	-40.51587
1.547275E-6	-44.800408
1.54732E-6	-45.731635
1.547365E-6	-45.943122
1.54741E-6	-46.003263
1.547455E-6	-46.003263
1.5475E-6	-45.951663
1.547545E-6	-45.721894
1.54759E-6	-45.401554
1.547635E-6	-45.212892
1.54768E-6	-45.16698
1.547725E-6	-45.15985
1.54777E-6	-45.149888
1.547815E-6	-45.162701
1.54786E-6	-45.171264
1.547905E-6	-45.253467
1.54795E-6	-45.503673
1.547995E-6	-45.820304
1.54804E-6	-45.992894
1.548085E-6	-46.029295
1.54813E-6	-46.039751
1.548175E-6	-46.029295
1.54822E-6	-45.900669
1.548265E-6	-45.268051
1.54831E-6	-38.87395
1.548355E-6	-26.895191
1.5484E-6	-21.833611
1.548445E-6	-19.846402
1.54849E-6	-19.381707
1.548535E-6	-19.30702
1.54858E-6	-19.299621
1.548625E-6	-19.325572
1.54867E-6	-19.746941
1.548715E-6	-21.756138
1.54876E-6	-26.844495
1.548805E-6	-36.466609
1.54885E-6	-43.279021
1.548895E-6	-45.471407
1.54894E-6	-45.927791
1.548985E-6	-46.017127
1.54903E-6	-46.03452
1.549075E-6	-46.0206
1.54912E-6	-45.892228
1.549165E-6	-45.622494
1.54921E-6	-45.318004
1.549255E-6	-45.207127
1.5493E-6	-45.179844
1.549345E-6	-45.16698
1.54939E-6	-45.164127
1.549435E-6	-45.179844
1.54948E-6	-45.194182
1.549525E-6	-45.340226
1.54957E-6	-45.632015
1.549615E-6	-45.907433
1.54966E-6	-46.03452
1.549705E-6	-46.051982
1.54975E-6	-46.044989
1.549795E-6	-45.996347
1.54984E-6	-45.772461
1.549885E-6	-44.378261
1.54993E-6	-33.192114
1.549975E-6	-24.429743
1.55002E-6	-20.812883
1.550065E-6	-19.597934
1.55011E-6	-19.381707
1.550155E-6	-19.35542
1.5502E-6	-19.34047
1.550245E-6	-19.3968
1.55029E-6	-20.150678
1.550335E-6	-22.969667
1.55038E-6	-29.593977
1.550425E-6	-39.226321
1.55047E-6	-44.420119
1.550515E-6	-45.679933
1.55056E-6	-45.934598
1.550605E-6	-45.980827
1.55065E-6	-45.999804
1.550695E-6	-45.972229
1.55074E-6	-45.788899
1.550785E-6	-45.44546
1.55083E-6	-45.198493
1.550875E-6	-45.125788
1.55092E-6	-45.103227
1.550965E-6	-45.124374
1.55101E-6	-45.113083
1.551055E-6	-45.114493
1.5511E-6	-45.155578
1.551145E-6	-45.367044
1.55119E-6	-45.715412
1.551235E-6	-45.931193
1.55128E-6	-45.996347
1.551325E-6	-45.996347
1.55137E-6	-45.980827
1.551415E-6	-45.907433
1.55146E-6	-45.506759
1.551505E-6	-42.026632
1.55155E-6	-29.303319
1.551595E-6	-22.740067
1.55164E-6	-20.07049
1.551685E-6	-19.37418
1.55173E-6	-19.259153
1.551775E-6	-19.219058
1.55182E-6	-19.186527
1.551865E-6	-19.37418
1.55191E-6	-20.776898
1.551955E-6	-24.735315
1.552E-6	-32.89798
1.552045E-6	-41.620961
1.55209E-6	-45.019653
1.552135E-6	-45.757719
1.55218E-6	-45.900669
1.552225E-6	-45.946536
1.55227E-6	-45.956795
1.552315E-6	-45.880438
1.55236E-6	-45.597208
1.552405E-6	-45.243288
1.55245E-6	-45.059846
1.552495E-6	-45.022413
1.55254E-6	-45.032087
1.552585E-6	-45.022413
1.55263E-6	-45.01276
1.552675E-6	-45.00863
1.55272E-6	-45.106041
1.552765E-6	-45.406075
1.55281E-6	-45.741399
1.552855E-6	-45.914209
1.5529E-6	-45.944829
1.552945E-6	-45.929492
1.55299E-6	-45.914209
1.553035E-6	-45.788899
1.55308E-6	-45.086383
1.553125E-6	-38.155925
1.55317E-6	-26.333903
1.553215E-6	-21.464235
1.55326E-6	-19.586073
1.553305E-6	-19.20457
1.55335E-6	-19.111554
1.553395E-6	-19.072794
1.55344E-6	-19.065783
1.553485E-6	-19.430951
1.55353E-6	-21.433919
1.553575E-6	-26.38461
1.55362E-6	-35.547072
1.553665E-6	-42.783542
1.55371E-6	-45.241836
1.553755E-6	-45.76918
1.5538E-6	-45.878756
1.553845E-6	-45.905741
1.55389E-6	-45.89729
1.553935E-6	-45.757719
1.55398E-6	-45.419668
1.554025E-6	-45.100415
1.55407E-6	-44.971634
1.554115E-6	-44.943075
1.55416E-6	-44.932245
1.554205E-6	-44.917397
1.55425E-6	-44.905286
1.554295E-6	-44.936303
1.55434E-6	-45.089186
1.554385E-6	-45.427238
1.55443E-6	-45.736514
1.554475E-6	-45.868679
1.55452E-6	-45.89729
1.554565E-6	-45.907433
1.55461E-6	-45.909126
1.554655E-6	-45.907433
1.5547E-6	-45.883803
1.554745E-6	-45.717032
1.55479E-6	-45.36107
1.554835E-6	-45.041782
1.55488E-6	-44.918745
1.554925E-6	-44.88384
1.55497E-6	-44.869156
1.555015E-6	-44.861168
1.55506E-6	-44.867824
1.555105E-6	-44.901257
1.55515E-6	-45.072396
1.555195E-6	-45.413622
1.55524E-6	-45.733261
1.555285E-6	-45.850267
1.55533E-6	-45.878756
1.555375E-6	-45.885487
1.55542E-6	-45.883803
1.555465E-6	-45.870357
1.55551E-6	-45.836924
1.555555E-6	-45.649524
1.5556E-6	-45.287083
1.555645E-6	-44.977095
1.55569E-6	-44.861168
1.555735E-6	-44.846561
1.55578E-6	-44.834646
1.555825E-6	-44.821446
1.55587E-6	-44.822764
1.555915E-6	-44.870489
1.55596E-6	-45.044557
1.556005E-6	-45.394028
1.55605E-6	-45.710557
1.556095E-6	-45.836924
1.55614E-6	-45.861975
1.556185E-6	-45.875395
1.55623E-6	-45.853609
1.556275E-6	-45.851937
1.55632E-6	-45.825283
1.556365E-6	-45.625666
1.55641E-6	-45.252012
1.556455E-6	-44.9485
1.5565E-6	-44.832003
1.556545E-6	-44.804345
1.55659E-6	-44.80172
1.556635E-6	-44.803032
1.55668E-6	-44.805658
1.556725E-6	-44.837291
1.55677E-6	-45.011383
1.556815E-6	-45.392525
1.55686E-6	-45.70894
1.556905E-6	-45.823623
1.55695E-6	-45.84359
1.556995E-6	-45.846927
1.55704E-6	-45.836924
1.557085E-6	-45.835259
1.55713E-6	-45.800443
1.557175E-6	-45.601938
1.55722E-6	-45.228787
1.557265E-6	-44.92684
1.55731E-6	-44.821446
1.557355E-6	-44.792545
1.5574E-6	-44.805658
1.557445E-6	-44.810914
1.55749E-6	-44.814861
1.557535E-6	-44.845236
1.55758E-6	-45.041782
1.557625E-6	-45.401554
1.55767E-6	-45.726762
1.557715E-6	-45.840256
1.55776E-6	-45.86365
1.557805E-6	-45.855281
1.55785E-6	-45.84359
1.557895E-6	-45.84359
1.55794E-6	-45.818645
1.557985E-6	-45.611413
1.55803E-6	-45.231684
1.558075E-6	-44.930893
1.55812E-6	-44.824083
1.558165E-6	-44.806972
1.55821E-6	-44.817493
1.558255E-6	-44.838614
1.5583E-6	-44.839938
1.558345E-6	-44.866492
1.55839E-6	-45.0515
1.558435E-6	-45.43634
1.55848E-6	-45.762628
1.558525E-6	-45.865326
1.55857E-6	-45.877075
1.558615E-6	-45.878756
1.55866E-6	-45.868679
1.558705E-6	-45.873715
1.55875E-6	-45.845258
1.558795E-6	-45.651119
1.55884E-6	-45.275361
1.558885E-6	-44.985299
1.55893E-6	-44.89455
1.558975E-6	-44.886515
1.55902E-6	-44.897232
1.559065E-6	-44.895891
1.55911E-6	-44.89187
1.559155E-6	-44.92414
1.5592E-6	-45.121549
1.559245E-6	-45.488278
1.55929E-6	-45.808707
1.559335E-6	-45.905741
1.55938E-6	-45.9176
1.559425E-6	-45.909126
1.55947E-6	-45.926091
1.559515E-6	-45.931193
1.55956E-6	-45.909126
1.559605E-6	-45.705707
1.55965E-6	-45.329842
1.559695E-6	-45.057062
1.55974E-6	-44.968906
1.559785E-6	-44.966179
1.55983E-6	-44.975729
1.559875E-6	-44.988038
1.55992E-6	-44.985299
1.559965E-6	-45.032087
1.56001E-6	-45.221555
1.560055E-6	-45.589336
1.5601E-6	-45.870357
1.560145E-6	-45.970512
1.56019E-6	-45.972229
1.560235E-6	-45.987718
1.56028E-6	-45.987718
1.560325E-6	-45.996347
1.56037E-6	-45.977386
1.560415E-6	-45.779028
1.56046E-6	-45.433304
1.560505E-6	-45.174122
1.56055E-6	-45.089186
1.560595E-6	-45.093393
1.56064E-6	-45.089186
1.560685E-6	-45.094797
1.56073E-6	-45.096201
1.560775E-6	-45.130031
1.56082E-6	-45.316527
1.560865E-6	-45.647929
1.56091E-6	-45.926091
1.560955E-6	-46.027554
1.561E-6	-46.025815
1.561045E-6	-46.038007
1.56109E-6	-46.048484
1.561135E-6	-46.053732
1.56118E-6	-46.03452
1.561225E-6	-45.861975
1.56127E-6	-45.537736
1.561315E-6	-45.287083
1.56136E-6	-45.214335
1.561405E-6	-45.214335
1.56145E-6	-45.210009
1.561495E-6	-45.204247
1.56154E-6	-45.202808
1.561585E-6	-45.243288
1.56163E-6	-45.410601
1.561675E-6	-45.715412
1.56172E-6	-45.973948
1.561765E-6	-46.057235
1.56181E-6	-46.083593
1.561855E-6	-46.099485
1.5619E-6	-46.108339
1.561945E-6	-46.101254
1.56199E-6	-46.090649
1.562035E-6	-45.96022
1.56208E-6	-45.662302
1.562125E-6	-45.428754
1.56217E-6	-45.341712
1.562215E-6	-45.319482
1.56226E-6	-45.312097
1.562305E-6	-45.316527
1.56235E-6	-45.310622
1.562395E-6	-45.344684
1.56244E-6	-45.477534
1.562485E-6	-45.738142
1.56253E-6	-46.004993
1.562575E-6	-46.103025
1.56262E-6	-46.126102
1.562665E-6	-46.145725
1.56271E-6	-46.158259
1.562755E-6	-46.154674
1.5628E-6	-46.126102
1.562845E-6	-46.029295
1.56289E-6	-45.780672
1.562935E-6	-45.545515
1.56298E-6	-45.453076
1.563025E-6	-45.424209
1.56307E-6	-45.416644
1.563115E-6	-45.424209
1.56316E-6	-45.428754
1.563205E-6	-45.463759
1.56325E-6	-45.561115
1.563295E-6	-45.805399
1.56334E-6	-46.044989
1.563385E-6	-46.152883
1.56343E-6	-46.183435
1.563475E-6	-46.20332
